FPKM ErrorRate
397.3503873459734 3.440564252537416e-05
1031.643153087166 0
395.60330591933075 0
873.3688877823516 1.1307388530350444e-05
227.20188720604787 0
270.50006461129834 0
519.4898852949246 0
504.06244892536984 0
632.8935828162327 0
233.05572004871576 0
581.9783835105204 0
360.8095240973982 0
650.8483528315869 1.0211792578069154e-05
495.61257800586617 0
220.83584398964652 0
740.8389096067475 0
760.9939652579721 0
305.8128754085796 0
1353.9714843172565 0
451.0927002104617 4.0553144896386715e-05
204.8841494933765 0
710.1821457312899 2.0804943254517272e-05
1164.7905412430666 0
876.5444395691821 0
754.2271620042588 2.078937247279191e-05
207.4452013620437 0
222.71041842133639 0
259.6020076874009 0
519.3757379810078 0
2086.895712699961 0
209.5666697010143 0
532.5017846928814 0
1115.9346974785192 1.3039679745465451e-05
2285.1019174530616 8.894924259719928e-06
830.7784689373124 1.3803194059105277e-05
486.52638224725825 0
335.96344058970715 0
198.80165130529187 0
333.61969009171474 0
884.0898367782085 0
601.5952823956131 3.4894270360806756e-05
530.5351414144221 0
321.26743400901927 0
818.8367756605562 0
45746.44089993048 9.375899372956155e-06
842.2777575898108 1.2478630345533274e-05
204.82594376908864 0
390.0847860532822 0
1789.3843431212888 5.261939340363284e-05
254.52496337328765 0
867.1773893671827 0
235.40335092832737 0
281.88483162019145 0
271.0713337242446 0
461.76360785527555 6.449116471043467e-05
954.1951885889667 5.418556388207054e-06
815.4332552005033 0
640.0792851680242 0
976.0401494387875 0
867.7325002536594 0
215.12835696804532 0
488.86821527330295 0
981.3567611240571 0
811.5402201965162 3.4055305816646236e-05
192.07889015004048 0
393.9816624680601 0
201.6828346575425 0
844.6399776762836 0
210.20633540795055 0
667.726669348503 0
934.509871162455 0
387.2763645277979 0
602.4901087967701 2.645712622694923e-05
560.5228798388518 0
601.4677740451391 0
694.755748302368 0
426.7886228639372 0
1690.7779875622155 0
203.05482673004275 0
727.0185992179032 0
237.05345955102558 0
221.32445019869178 0
418.37737334527276 7.063144511936714e-05
2354.5239234708906 5.142862285719429e-06
452.45973140767154 0
305.7688278334428 0
249.9586623819193 0
594.4424087339078 0
463.8631884569985 0
205.98174315137675 0
1562.0690728391835 7.532275801810759e-06
834.4018338199004 0
196.46926478204142 0
730.0491772624927 0
839.586231308981 0
436.3209188965419 0
717.4952985192427 0
203.98778133934297 0
251.93603266191352 0
224.604248882114 0
583.1444617289119 0
536.7373704756773 0
436.1776778893396 0
206.36167941760758 0
1003.3553513552723 1.113003216579296e-05
269.2461180569208 0
1999.9603276767941 5.820687888894709e-06
856.7633162073471 2.6689441656880537e-05
1198.5203200234037 2.5499340842039235e-06
338.9392082439256 0
468.70322458852274 0
948.8247866066619 0
973.7481092436768 0
1977.248454059659 1.3083439636280378e-05
686.3113537264561 0
228.20449679749038 0
806.7280636277803 1.6238445331243987e-05
379.76515650074805 0
739.2253518745398 1.8828845791752966e-05
192.07889015004048 0
195.92046795304128 0
474.3951182105689 5.5847202055177036e-05
1305.211109461888 0
1610.129076687488 0
1917.7835855320707 0
615.439438377272 0
545.638840229729 0
238.48930306737455 0
814.2552093028766 1.1507082609346052e-05
323.75964039734595 0
3966.5813808366793 1.1461370596541416e-05
224.25210425017224 0
1313.8918187353559 2.747947283379316e-06
1810.6422844932792 8.858729835316213e-06
476.9199471363829 0
604.4394733453225 0
5887.33200253125 0
1254.632462845408 0
549.1582317899449 0
609.115359486298 0
745.6686281305352 0
242.54606951365594 0
1079.2722869397658 0
445.731620987048 3.0454379339749056e-05
671.5373505630262 0
356.169142021075 0
566.4886667750069 2.825577124127603e-05
827.1803527815281 0
951.9617189875177 0
919.8643159448993 0
199.76204575604208 0
1218.6901798099693 2.106393958862126e-06
319.4374580770062 0
611.6083912151785 0
198.32145407991678 0
2112.9811961612345 1.6101115002213902e-05
1436.541829809476 1.812238499647746e-05
243.7655733176877 0
385.74739870132265 0
641.587547892454 0
596.9552923090022 0
200.53036131664226 0
313.22338314818 0
480.19722537510114 0
207.18026496183674 0
485.9833055228308 0
632.076747800883 0
562.3416018009694 0
1190.3317915805926 8.360924383799873e-06
325.67785796162883 0
530.2852062115397 0
698.9633213239472 0
782.5553941105334 0
487.763969532527 0
417.0071904930879 0
440.9368451330858 0
197.9890098469648 0
197.62783586548608 0
612.4239088706538 0
579.356071747075 0
1431.6912763898627 7.800129482149403e-06
2632.3939569923336 5.980932786277348e-06
1875.7903000295257 0
1731.7649803651316 1.0563343086820117e-05
842.5568956358313 2.0771883178929002e-05
677.0489849167487 0
676.1825052235918 0
1089.5574463851483 4.220005781407921e-06
695.8811335946574 0
9190.545884990775 4.243577080864544e-06
10106.10673514787 1.0912662325852097e-05
3384.915249519642 9.205535946302794e-06
10802.463178627071 5.789171602624645e-06
318.8509576490672 0
446.6781063756786 0
632.0676011870665 0
13314.961652480846 4.6427841848199525e-06
336.4859171699291 0
384.9381007913155 0
450.2997285604427 0
1043.145283030617 0
2055.118855764031 0
1584.716624179666 0
905.7043522092998 0
562.3982595006754 0
640.7543317695108 0
222.40713596320475 0
397.8564298301613 0
265.7844564291835 0
639.7610010005428 0
307.6994060837848 0
1701.543367971838 0
2259.86403858855 0
1129.9356295622115 6.038756740762212e-06
203.6036235590429 0
702.7686393364605 0
301.6220632598514 0
977.4450822516421 0
236.31191456744978 0
236.677207456753 0
1715.8710539561246 0
301.14629473088957 0
605.5838057976357 0
199.76204575604208 0
1111.1306464489007 0
519.8004001805823 0
204.49014151358156 0
195.92046795304128 0
201.6309214439884 0
210.13430582414426 0
221.21085515612995 0
519.1684122440973 0
551.1571015410998 0
1049.4641760969212 0
5793.563922074682 7.181337141037871e-06
1910.2018383895195 2.5044642074497793e-06
1411.8357879106081 1.320864373646114e-05
639.9712344438586 1.2102288542763437e-05
339.4802304511815 0
451.66829874506413 0
331.34122130802166 0
284.1852912838932 0
1809.4048490427767 0
1151.6847472163424 0
815.6463045099598 0
631.7358285586255 0
558.7829265506429 0
208.29888531826612 0
474.98796542234095 4.234417344173442e-05
602.1444540858352 0
4459.288738424097 3.313375766632318e-06
646.5634690032159 0
954.7406372646242 3.158310303987367e-06
2566.4639028047673 2.824220515137822e-05
891.6789041331456 1.5169902912621359e-05
586.4204757580763 3.0900438786230764e-05
223.93197276658884 0
1100.9878470839383 0
801.8404409643124 0
611.2657943643262 0
786.2253521414247 0
650.4604401183195 4.3109022718454976e-05
2344.3264632791797 7.5262512221605675e-06
312.3718786678867 0
262.1585821926613 0
2720.168255024832 0
5086.138621006319 0
873.536376624354 0
556.8974454418523 0
974.5335912751358 0
647.2258269347404 0
623.595137792033 0
864.1571062126033 0
723.212591579745 0
441.8512942142385 3.951944356623459e-05
201.6828346575425 0
200.53036131664226 0
358.0737898393695 0
680.6706744279952 0
347.5175214227203 0
477.16489035384626 0
803.6516379892167 2.67047654653973e-05
473.89799220744766 0
2144.745577859279 0
525.1461325350532 0
1139.175571582163 0
700.9703497271477 0
1289.6876353483199 1.0236043155157943e-05
4071.9585699521976 7.628754300710237e-06
5329.780523173942 9.584787026032282e-06
6344.166275116066 3.4934375775106462e-06
3390.7902470512918 7.962462675956207e-06
5825.800891732937 8.265555775970376e-06
646.2644682325338 7.161784716751415e-05
932.3909130097755 1.8643151438319134e-05
500.71687266430064 0
572.8191629240753 0
545.3011924325572 0
642.4550539357456 0.00010134792743488395
745.6216348429314 0
193.3594160843741 0
971.4231829745136 0
499.03981097939044 0
752.4041606458409 0
323.26590527341136 0
192.07889015004048 0
868.8192568033946 1.2147273544452947e-05
1810.4366275423365 0
12806.485952388919 7.367715303060443e-06
861.0026368417324 0
928.8571735161079 9.314889851427506e-06
1738.4863857592534 2.3066028814083195e-05
1511.1942331488153 0
494.81028603749644 0
628.3535263955531 0
464.58777632746495 0
513.4680331332331 0
1082.6698737110344 2.051008583470922e-05
1266.5238435614453 0
275.66418783146133 0
797.5802630506639 0
799.6309998849825 7.837174855208195e-06
752.7686623974192 0
298.0424112161461 0
342.30480107791425 0
555.7145574498802 0
1186.701169358127 0
1321.6206040421862 0
329.87678484988766 0
263.6117182059176 0
936.8409471282575 0
515.5397411627085 0
408.13793864767877 0
731.7721482220364 0
496.3535627914892 0
1910.66683062752 1.1985665144487194e-05
597.6939043629352 0
1007.3219599907807 0
402.38970090026856 0
486.0273846290671 0
1094.838308240429 0
1366.6326512152789 5.06482982171799e-06
698.1000552008693 0
518.4036283115807 3.5120375085605915e-05
3067.958386595214 2.1542554623840067e-05
770.4686766089987 0
759.6061351117702 1.8257503834075804e-05
444.85470958749374 0
849.0827190947208 0
1053.575256943647 8.559225561271217e-06
681.4273900367486 0
1275.0583353762986 0
467.51493044267795 0
921.6843903626145 0
3126.5425479431997 6.252918028413259e-06
4437.97715368185 8.080416303047933e-06
203.6036235590429 0
553.6538359641194 5.880162292479272e-05
473.70628357003085 0
391.0260557660521 0
501.7333433616208 0
1698.0064367736395 1.0691893833770989e-05
2605.0592766104714 8.192557880421425e-06
1070.916034368281 0
686.1592859397838 0
579.7981332049868 0
195.92046795304128 0
1719.6710047550682 8.760402978537013e-06
781.3547621815012 0
195.92046795304128 0
459.6775780859017 0
11520.008268304737 5.835725980985538e-06
3416.1469857353923 1.6007619626942425e-05
288.03151990747875 0
781.3203824267707 0
197.2009938873749 0
928.1933610170531 4.533153216045549e-06
781.8606793722239 0
568.2468342632079 0
856.4125215904883 0
718.034080717098 0
691.2942969943184 0
387.1707824985129 0
367.6761723065613 0
642.3738778227445 0
761.9370917951794 0
457.83924256163647 0
578.2050822169482 0
521.1274906943462 0
237.95619429741552 0
192.07889015004048 0
807.1190207937756 0
498.9126044153615 0
931.4894611839744 9.524535202682108e-06
1948.3758221302687 7.318790408871545e-06
925.1197275120595 0
536.9885505627965 0
330.2156253162779 0
776.2736054943924 0
3767.1628466469942 5.413423123978216e-06
463.47035535786847 0
815.6057357934324 4.321185041785859e-06
1147.52071853657 1.641039105961895e-05
346.22219949544797 0
2028.5749761752145 1.367315685845548e-05
4364.807514098216 5.8544924447775e-06
5827.6408050244345 1.0106976733739559e-05
497.59038131752203 0
435.71286791716426 0
586.7175898458363 0
532.3822541821571 0
366.3519269796027 0
2175.6135624327917 0
1365.429219386591 0
977.9532722205035 1.916186023339146e-05
628.9943389446657 0
2089.178061865274 0
498.4091497745124 0
1083.8145043274951 4.6092295211932375e-06
211.28677916504452 0
207.06104358174363 0
316.6557703330667 0
1806.3680061339574 1.5082880427951594e-05
2809.272015208548 0
379.5999761270291 0
382.6516110293009 0
886.6706879690183 0
1199.3071850724787 1.8569067647113437e-05
1024.571397576804 0
207.17080294754368 0
514.984846591164 0
405.7714287742207 0
1039.7193385573585 1.776356692423839e-05
884.2926567817956 0
1365.4119985205778 0
1389.7669920173482 1.0969001601474234e-05
625.8795948762235 0
602.1498589030905 0
745.3744089457755 0
1178.3420301381918 0
800.6562853603082 0
699.0256283323525 0
241.55266783728453 0
206.93299098831025 0
517.0168548813273 0
1526.5126796656343 7.489795154102535e-06
412.4600167670869 0
853.2413884872026 7.898831762782284e-06
1245.1971384667208 0
223.8271021081736 0
285.2012012783969 0
873.4118163743778 0
3856.2476878274733 5.82570651255731e-06
2727.8448055682243 1.950530641861118e-06
997.6700344551189 0
1405.6415697170955 4.565822859118274e-05
809.3831364311916 0
335.67335077027235 0
564.8444052412225 0
564.1562371073516 0
1247.7822757933495 6.312095236892934e-06
3777.4600401459625 2.2012419407029445e-06
1721.470114721632 6.602272502195255e-06
1760.9432501036679 0
621.0750863695215 3.2215456976257205e-05
479.8426181932857 0
686.5510694067469 2.1194972552510545e-05
1156.2904110298591 5.2987712149552515e-06
796.6056275852454 0
795.275276958971 1.523817263833721e-05
480.94419883679575 0
847.4535610331299 4.4182100947264245e-05
761.2294069500321 0
194.63994201870767 0
254.23013103430358 0
274.47411061440266 0
1799.1784253225906 9.406098914536185e-06
536.3056033978185 0
6092.816989303032 6.121449559255631e-06
533.7703585023049 3.0113225728740063e-05
919.5742319370211 0
715.8019168591413 0
262.6844408051933 0
473.259450536846 0
219.24433318554617 0
192.07889015004048 0
993.0219928649146 1.3025497411182389e-05
218.8418821776128 0
1727.182637043147 0
939.4388911467087 0
570.1937390746145 3.785011355034065e-05
642.7658133111809 0
264.2456731635557 0
1007.7043718260984 0
220.00060198648535 0
1063.1098084706812 0
999.4698936554731 0
311.7265769962293 0
685.5170177121169 0
713.9185846671215 8.202705252192173e-06
552.2149104890561 1.2312693155373875e-05
671.7732180672942 1.0397388176090166e-05
289.51527260797 0
209.00012571087734 0
618.6554371151891 0
7912.5882913401265 9.494262228933418e-06
2419.95881724951 0
250.05674521944275 0
573.7268396188275 0
200.00214436872963 0
1149.5372778650922 2.387033633303893e-05
624.4746644537111 8.738203425375743e-06
260.9677245362847 0
193.3594160843741 0
232.15353132225343 0
433.54949491009137 0
3494.9310553042355 2.0545524773793772e-06
3805.4951298145083 1.409398574393342e-05
676.4568880828222 0
822.7968576539363 4.940662641673502e-06
733.0893494616361 0
488.6060123438918 0
571.7955400420279 0
999.7227295444403 5.042838916596487e-06
788.186994872048 0
1180.832158172395 1.5345661014348194e-05
225.97516488240052 0
192.07889015004048 0
537.7002145833699 0
239.41261665130043 0
207.4452013620437 0
1364.7290640215338 1.670564650851988e-05
1022.5240286017417 0
206.76727586739648 0
202.16303188291758 0
254.23182485167703 0
561.9482120029888 0
876.2243324419287 0
787.0989426588168 1.601973631514025e-05
491.04038852873254 0
923.5116538862374 9.880641846494348e-06
719.3087659882696 0
5640.389164337716 7.039626055063955e-06
1101.7168742814392 4.600133403868712e-06
915.0584220018308 0
655.0076638475749 2.8470561439471587e-05
620.256217935883 0
235.77683765917467 0
320.8677859956426 0
2574.800565255902 4.789696405093363e-06
508.2887630595446 0
431.0424912139772 0
697.2432979824044 0
354.21607095316284 5.7996230245034076e-05
549.0501198442696 0
454.04971194177307 0
487.95425747731434 0
516.9475795020742 0
4804.714025005572 6.447931342427066e-06
773.4634962727711 0
531.9846492194005 0
836.0397026170094 0
1097.907771974725 0
687.2965375479858 0
220.18306460357272 0
238.58220039689238 0
1045.7822482805386 0
635.4599023141304 2.0632595374172118e-05
192.07889015004048 0
878.9814574584592 0
266.3986453388638 0
858.7475884558856 6.808927866218185e-06
316.64641584166327 0
317.47896557656685 0
561.7453093427162 0
559.3663000982899 1.712651355563548e-05
1151.9869073472653 1.0827080694232414e-05
263.89969255396863 0
694.5164156484449 7.540966299421608e-06
503.46584260468654 0
483.5149516595109 0
836.1972042159109 0
541.6083634934945 0
2576.1508173214916 1.0924603846553014e-05
4477.36236961637 3.0734335477565473e-06
210.6309000279468 0
255.22482528686626 0
206.74673267058904 0
286.63015643651084 0
970.1492009979048 8.181364487969304e-06
1211.6207106796182 0
619.749747841012 0
682.9169460768164 0
1825.5633500277152 0
1209.6350460575525 0
379.73996582663 0
273.8724842055994 0
684.5691644947442 0
335.1595426618064 0
238.02618255698437 0
390.9661211588645 0
315.6774803335448 0
203.6036235590429 0
662.2367921999661 0
1923.5446428684177 8.281139153501956e-06
500.72565675988676 0
291.9599130280615 0
697.2463712446469 0
93310.8687836211 6.232858613671185e-06
1086.7987076085162 1.880194036024518e-05
315.7469627842425 0
701.5363176384878 0
5911.235914909098 2.7305767251101104e-06
212.10997440854467 0
839.9373056670673 5.221059666269866e-06
958.2472831567394 7.1588623136011225e-06
575.008354800664 1.4336712018465685e-05
1358.0207568206843 2.5408440683995224e-05
1147.9694220967247 0
745.074014892007 0
556.5611110938825 0
667.8131060187142 0
287.61725985945185 0
5108.604859776645 2.0888382925835796e-05
342.71202541136796 0
736.9394251431654 0
509.59258970312635 0
1270.9806054498558 0
379.86127880988266 0
1142.0342707833927 1.8281535648994517e-05
900.4846162560079 1.3600816048962938e-05
1118.7356132593727 2.7692392899670462e-05
1216.6484124142728 0
856.637928852377 9.899519873286145e-06
979.4937439262523 0
245.58658097755176 0
928.9580278126691 0
764.473982797161 0
221.95782861782453 0
437.48408912478703 0
1830.0454174697302 1.8269545216210932e-06
1524.315474714233 0
1313.700489934711 1.1334270299678107e-05
1809.1866874452671 6.54150585464774e-06
3954.8341126651126 1.544296603782909e-06
2768.287227745803 1.0048199627053138e-05
2508.8222067207116 7.741292207460439e-06
3314.5305129762687 4.181136884568009e-06
5218.668895303822 5.7261014792428825e-06
4192.161609552544 7.390093474125172e-06
4991.495733115796 2.373291653811337e-05
1777.0551266979894 6.83238385972296e-06
361.38271189657615 0
1165.2197254879773 3.1579213298638305e-06
742.6759390513458 1.959324424938281e-05
760.4952057869103 0
647.2143936674697 0
233.35351677763055 0
299.6430686340631 0
559.3721438949478 0
216.3414868005719 0
720.96588070271 0
677.4777550347949 0
794.5081365297128 0
209.19137309068043 0
236.58968547642974 0
302.5390272855561 9.767532721234616e-05
433.51743461423905 3.045159718627242e-05
256.07148881581713 0
435.16950093415903 0
296.6506817138309 0
197.4570990742416 0
2517.948252216725 8.844509107633254e-06
220.71610649968287 0
363.5092996089516 0
865.5623586989823 0
615.1111443372042 0
621.708407710131 0
1486.476295797408 3.6043959212655754e-06
856.4410256518328 0
707.5409364807782 0
1427.6204226793684 8.305233958440609e-06
624.1624413565798 0
211.97277520129467 0
353.2077100759046 0
507.62743881056315 0
213.01925542914293 0
450.73591646863457 6.131583788092464e-05
214.42988827659065 0
813.2174808627727 0
695.6017742113361 0
501.5820084784723 0
203.6036235590429 0
285.2828849418934 0
193.99967905154088 0
571.3758985361204 0
209.26489611083355 0
1219.585975652315 5.545604276770018e-06
601.2561771671011 0
938.4726112475062 0
807.1977282675949 5.068320966630175e-06
192.07889015004048 0
204.37193911964306 0
493.60354791210403 0
988.9443585134129 4.414231482298932e-05
402.87175216898487 0
593.8931530446828 0
358.3643293370755 0
673.939790951638 0
753.8624113249375 0
224.11764902706722 0
211.50020015410013 0
337.35701995006144 0
1149.7609713436188 4.935298240072648e-06
507.26434231207764 0
212.56730509937813 0
210.18918550704427 0
577.5875549522755 0
459.4527052388968 0
742.1379518568564 0
715.2164185231285 0
1086.2061237984788 0
244.02952950922585 0
530.8257805997238 0
242.019401589051 0
264.89425123419215 0
628.2008701960699 0
355.68490952489844 0
478.8166583521477 0
363.8078005868875 0
606.3835203722518 0
705.4349976142012 0
512.4949350521821 0
1117.4121801066578 0
1591.319242943043 0
199.76204575604208 0
1142.689883411292 0
914.9891353286233 0
289.952602103971 0
273.7764447605244 0
368.00747361807754 0
206.24470829860596 0
358.6961599778663 0
192.07889015004048 0
917.2505769626548 0
197.69350386211858 0
198.18021960186528 0
483.5179112726103 0
311.25714106173996 0
590.1857005309205 3.159757330637007e-05
471.1285826926075 0
777.3826386445116 0
236.43165205741343 0
325.2535873207352 0
215.9735040847055 0
560.102043677518 0
343.1609421836817 0
496.3318521477045 0
536.4184116348907 0
259.38333325861464 0
1167.8915653258 0
635.3366463202537 0
742.3849104299064 0
498.7057502259692 1.9751525805368464e-05
4867.319656449239 2.7790824025723187e-06
610.1706077099619 0
477.51100931736374 0
395.5347607166603 0
573.2735929974192 0
454.429449117546 0
833.9297094754157 9.213193292795283e-05
524.1902338299478 4.414816122908481e-05
461.16007315134163 0
247.60715112068854 0
850.1185702875908 0
556.4293863169187 0
749.4794371789966 2.0667989417989417e-05
466.24754806008303 0
248.30561981214322 0
1116.3479673016768 2.1711047666605153e-05
196.38145728940137 0
602.2740311149047 0
601.5136067505385 0
536.9784411475255 0
499.13394419224636 0
552.7490008408997 0
607.7581883158156 0
516.5154547887469 0
1685.8596602860193 2.2939988988805284e-05
5618.9886134314465 0
939.9463673263555 0
729.6253841556536 0
219.09188962193505 0
444.98276218092707 0
462.24372911209736 3.3921302578019e-05
491.6619341309317 0.00012208521548040532
665.5095469037155 0
926.7383634572456 0
3392.952536376421 9.514476275653406e-06
396.2700491377776 0
725.3134090706528 0
641.5434931011351 0
495.7224984272286 0
192.07889015004048 0
634.0204032369252 1.2021976172443227e-05
195.32945598334885 0
747.3565107944393 1.3351223973457766e-05
556.3829509638883 4.002641743550744e-05
740.9896203788164 0
705.4097240760236 0
1237.692341830144 0
837.7219774737811 3.42219636562746e-05
415.0670269908921 0
241.81721328362988 0
610.9828816235317 0
216.50738489732765 0
285.9020403387141 0
854.7639523683612 0
1797.6469488060484 0
434.00682560092474 0
552.6946936573728 8.911067545891998e-05
637.9711847703073 0
847.018654564204 2.325851843237586e-05
376.2040910459807 0
629.7030135713381 0
336.94449585098704 0
321.45331680593864 0
201.81088725097584 0
715.7633290001185 0
1292.3590096814678 1.6841537969247353e-05
3189.7978048366404 1.811026616658185e-06
648.1621150990762 0
204.65132659622492 0
246.3534893667955 0
2047.3368769609233 0
619.3379138660846 0
1915.9869292466537 0
1291.0782897603842 7.955829236081276e-06
2624.029758954266 1.326887608196627e-05
506.3679741580442 0
716.2565319903789 0
201.6828346575425 0
195.92046795304128 0
192.07889015004048 0
607.4991656745418 0
338.0588466640712 0
259.5550743839253 0
582.6751548479508 0
242.31777656404137 0
204.1371760316819 0
344.4960851447753 0
742.6258574475858 0
663.0293026224412 0
277.1734626165112 0
412.81162685666277 0
457.61678840513713 0
1315.2925451932306 0
1523.5540767607208 1.0291665809027849e-05
404.09588658342403 7.856693903205531e-05
863.5539591826281 9.9743658796892e-06
244.1907281733558 0
332.1897694650422 0
251.8182087387342 0
753.9026336604362 0
474.6811136579718 0.00010375596596804317
413.8183344999942 0
198.9937301954419 0
563.7687951852924 0
258.3966543281597 0
358.6636730619846 0
759.26041292166 0
936.6910983487079 0
542.1565862086451 1.2836476130572635e-05
192.07889015004048 0
630.1013742685413 0
639.1731578609856 0
1020.7030915284946 0
491.57228692164904 0
198.39005368354182 0
704.8441584550263 0
470.472150035973 0
343.3201380029636 0
421.6737292951519 0
404.38534737390614 0
366.17221149512255 0
352.59003226672644 0
1751.7063687978205 0
209.75014804384418 0
822.3134688198699 0
547.3961684365482 0
904.9243955038421 0
215.12835696804532 0
1015.6619500760406 0
395.15264090866947 0
505.8454065892537 0
277.5280396600314 0
502.2524014676235 0
769.2602108795883 0
215.78423610514304 0
611.916166746764 0
1342.5399760106163 0
410.93906555528656 0
950.7513064692002 0
196.2159739378875 0
199.76204575604208 0
496.7302379939416 5.728689275893676e-05
310.02955676810234 0
597.6131920958517 0
666.8291022223792 0
4124.74145307359 1.0969964237916584e-05
1258.6163576536755 0
1709.1903374253604 1.134197276603306e-05
568.4354080831861 0
199.76204575604208 0
555.3716302259797 0
208.8605194999914 0
647.1534162420253 0
220.11202546923556 0
477.3160420228506 0
540.0893354214329 1.609243494633173e-05
197.2009938873749 0
227.75068403504798 0
200.40230872320888 0
201.50821748467882 0
402.14998013692014 0
3702.9883104506466 0
300.99891962335755 0
320.09947043504246 0
850.1095792332852 0
686.5448330791447 0
201.42326858977216 0
239.57476116895958 0
192.07889015004048 0
304.6606396420642 0
456.92612906846165 0
454.8903365491474 0
361.7485764492429 0
670.995589590808 0
854.341712713262 0
384.15778030008096 0
984.3330163610414 1.7042452749799752e-05
1307.7161672570232 5.490885130683066e-06
633.2394764360627 0
275.04349147449653 0
663.416476716971 3.619123448300822e-05
775.9679835837395 0
1019.0059520874147 0
1029.8501774284568 0
222.63689540118327 0
657.4851948210768 0
417.2544506028571 0
509.52126927134066 0
315.21335742852654 0
479.33717064308604 0
335.25388509362614 0
456.82762707351293 0
730.055522210816 0
579.6816982863609 4.2755141305742016e-05
668.4345377221408 0
1048.9163254693503 1.0524210947284227e-05
1020.4399820623236 0
2082.457714974604 9.27467411113842e-06
3694.9505087906928 0
2860.6872694813032 0
1078.8929814227022 3.8000706813146724e-06
1053.5229413476332 4.186465158143722e-06
259.1864523962109 0
669.6184722605657 0
786.6236205802288 0
680.1614594365643 0
193.99967905154088 0
1385.0093495864885 2.3210741931365835e-05
2560.115149535178 7.237373798294393e-06
1381.2411283917043 1.0595240617914432e-05
1894.8452378552067 0
1363.6837743456254 7.634306537765642e-06
1288.6925905855421 5.592848983289965e-06
810.3056762381794 6.87086889007984e-06
1291.6830814743969 0
979.9399329660762 0
780.4129515698602 0
1124.0518835393725 0
1090.893611945518 2.915145932205366e-06
1349.2616736061213 1.182379704688845e-05
207.4452013620437 0
594.1640335307918 0
973.6207049212645 0
539.8075027481449 2.216999955660001e-05
2309.3358529306684 3.648024047774523e-06
232.82974488383337 0
1276.748382827319 0
738.1916037501373 0
1202.9710277457955 0
823.9869504010261 0
688.9520555336225 0
1016.5482967227621 4.107653379777201e-06
6849.619550341522 1.6804357369866007e-05
1770.9931495847354 5.599292249459668e-06
2191.310666572926 0
1852.1591580037746 0
1831.1830883038838 4.416561221267509e-06
223.92233025202307 0
295.85559756068204 0
213.20756806654492 0
509.42334669989157 0
883.4446295561235 4.616144503787547e-06
201.2986768772424 0
203.6036235590429 0
612.7679008786574 0
840.8583710705846 1.2086344847591191e-05
470.61090278412667 0
546.9446397022402 0
860.0941007176283 0
3402.972008649179 4.524605369575423e-06
844.8965789773737 0
384.6471532686161 6.361323155216285e-05
688.8497797609451 0
197.84125685454168 0
211.5196020621961 0
978.274210636288 0
1464.0414676843025 0
225.15914345365857 0
1755.2589976738423 0
4573.4353127205695 1.6153392616284233e-05
433.06488484471697 0
622.736464378618 0
10131.978786729476 5.463310591392445e-06
4405.66678147928 9.4266255037353e-06
3122.0966185967704 1.4363207208414924e-05
1006.4056633182696 1.8033668859761175e-05
1457.438228325619 0
2463.3777096334625 0
661.8415596007745 0
310.8722960582193 0
573.8388228672026 0
200.01815094290882 0
359.18752458057565 0
698.329893189083 0
973.5258817937931 0
1879.9348617598164 0
485.9197829831983 0
353.67706461725487 0
2482.189133538937 0
275.98703689979493 0.00018315018315018315
199.76204575604208 0
203.96948811170964 0
219.23487117125308 0
569.9719435713816 0
271.79162956230726 0
625.929718288325 0
856.2322416860023 5.834339756941406e-06
952.6579398969368 0
355.7533868475901 0
486.69835704171794 0
543.6171269389987 8.900122821694939e-06
433.3626704576658 0
724.920785504726 0
823.3347681177158 2.6360880453407144e-05
1038.6076268972627 0
202.32309762470928 0
516.3195241197357 3.701647233018693e-05
315.2918488021694 0
203.2743454616428 0
304.4450408878141 0
582.6244102853436 0
507.2822890770665 0
340.530559514064 0
219.8452309793248 0
202.32309762470928 0
900.980533855248 0
5913.150801202293 2.93303299075508e-06
637.8689404200039 0
935.2605722724211 7.606471586025391e-06
896.7091986290985 0
253.37710987618382 0
486.57569418008364 0
363.53330947022033 0
579.3635361037267 0
766.2220577102431 0
194.63994201870767 0
1294.5331195539222 7.589614371693774e-06
197.84125685454168 0
215.8966725286455 0
192.07889015004048 0
744.2535039808225 0
219.46562222949788 0
1004.8469938992116 0
645.6931219543766 0
490.9902296787701 0
235.54937581557596 0
201.37955219941082 0
476.4516870171754 6.719075455217362e-05
675.738377872804 1.1943293243679013e-05
594.6122176078086 0
238.6931573937698 0
238.17782378605017 0
310.9620032321905 0
912.2107139801163 1.59821000479463e-05
898.3047129588444 0
212.7111844178426 0
266.4658057899652 0.000327653997378768
207.79443570777107 0
430.80782636352535 0
230.30258928989852 0
675.9450381459851 0
355.73010455787494 0
325.04452186206845 0
204.5640180097931 0
984.644410631645 0
1679.2364806993332 1.0494005299472676e-05
540.8834089903377 0
945.0281395381991 0
990.7757093507637 2.3642338700144217e-05
402.86459394947616 0
700.8355025063078 0
825.7225774527077 6.399426611375621e-06
1670.9222911607399 4.090883058016904e-06
3955.5352642518696 0
2133.202383671633 1.4047192949432915e-05
1267.1908021898532 0
553.3251064250447 0
688.4692563967311 0
467.2755545831894 0
669.061734098141 0
543.8975700357693 0
600.9606711822548 0
647.9344816279455 0
584.6263231233415 0
487.26795553424756 0
627.6625919729588 0
351.8227885250902 0
640.290212399447 1.418379359743557e-05
592.526370088167 0
647.9707482715404 0
415.24081691557734 0
271.63156382051557 0
950.6124819054882 0
710.428255862787 0
1223.1775803644728 0
1086.4383564659768 8.2744240311339e-06
1406.088179784241 0
6800.082843651815 8.181759740677178e-06
469.07686857694097 2.535496957403651e-05
735.6364014341524 7.0001540033880745e-06
785.6505308420518 0
767.7212833709684 0
505.1055201622999 0
665.3561872972197 0
1039.1763463102036 2.4374192604869964e-05
797.7127774069347 0
1558.5085812309724 7.5960136120563925e-06
751.5761553139937 0
466.9583702248864 0
388.56614827073764 0
519.4917957129853 0
473.435149827129 0
1340.2616376599187 0
1197.518390360208 0
961.6414321555044 9.099802079304775e-06
703.630965339775 0
401.0180384354734 0
195.92046795304128 0
555.4589996425206 0
611.6209993294623 0
972.6399750459533 0
835.6149028585411 1.9075960474609896e-05
595.3140907850235 0
356.81095526177006 4.562043795620438e-05
355.25806754678723 0
311.3087773752858 0
394.6518464936441 0
874.1662295605439 0
198.9083617998197 0
444.8760516863993 0
199.76204575604208 0
398.5455764113198 0
448.1623731873656 0
192.07889015004048 0
4503.814595200776 6.950051872659886e-06
5003.10824459318 8.197561225535403e-06
2352.9762545374906 8.372544751251695e-06
6470.859907781881 8.210377664741227e-06
645.859339768704 2.4477407353013167e-05
720.9593833195338 0
851.8627637824609 0
1970.9737431751616 1.1948359191574018e-05
2052.5566688891704 4.016322333965235e-06
1156.840848997702 1.3177574403879478e-05
919.9785123764831 0
4241.77553611816 7.869025085021239e-06
655.3834631324819 0
766.7377697167866 0
4402.1622195545615 8.472398338280273e-06
323.7056988286836 0
290.8446162465451 0
653.357757190143 0
513.1367116433847 0
781.7015655080829 0
578.7176894478928 3.4573364679850644e-05
449.1097584150745 0
595.9213510364199 0
728.8897125443648 2.2717462913741793e-05
332.1834923771288 0
857.6199841652401 1.9061052551321885e-05
548.705362861949 0
296.49995952251703 0
7977.959764133826 0
207.4452013620437 0
22662.53456484705 7.107432935595464e-06
1457.3119860711513 0
233.28854294586733 0
210.39338897830015 0
807.3237683804614 0
1059.713291510711 0
824.9320390332504 1.0804736796611634e-05
379.0356765627465 0
199.76204575604208 0
207.20510274935614 0
741.4245159791562 0
716.3262076662176 0
818.4977607088977 4.662366928277255e-05
461.59031939062794 0
546.3750130340827 0
1000.5904721523327 3.1213908917813776e-05
794.3442102041673 0
457.96126915067293 0
271.76700406357 0
233.37585153229918 0
4518.569575465016 5.803246723100017e-06
3663.504665257543 7.281995266703077e-06
1504.2984629729315 2.4793531863407475e-06
272.87207331940124 0
218.421137942046 0
522.7113447630664 5.667863215567731e-05
434.57006445174073 0
382.9757563606961 0
424.6187148583053 0
493.42932669654846 0
3105.4961710924936 7.109341674960899e-06
798.006135603921 9.74487906605079e-06
641.3320301028049 0
750.2814870249636 0
7228.78355394958 3.0718380035510448e-06
4607.392636294521 5.356224647203337e-06
192.07889015004048 0
961.6563714435443 7.570595805889923e-06
199.18580908559196 0
197.66663968167802 0
649.531535834359 0
823.9554620583784 0
812.9112681393452 0
1343.8956035344347 6.8495340033699705e-06
1383.6704690214115 7.932478740956974e-06
498.52065810522834 3.584165158330496e-05
1106.8929024278282 0
843.7737028342347 0
525.3757809958086 7.616726331022927e-05
239.73522019267213 0.00028872527789807997
1013.0319066060134 1.547819895676939e-05
3461.8681654199922 0
778.1503927761307 2.5252206411535208e-05
645.4844220542136 0
1964.656213176165 8.113458605134196e-06
729.585471658999 0
850.7388155301356 7.294956996228507e-06
617.9914943030866 0
1069.1331243587092 0
410.30344415334014 0
929.4217297135083 2.8703464508166136e-05
982.0572016783434 0
843.8465825081205 0
421.51670504804076 0
297.3792817144377 0
577.0999463609081 0
342.06744958894166 4.8828125e-05
234.96990830107012 0
366.10236462597715 0
204.24388652620968 0
1341.8574979027571 5.24337106812712e-06
587.1959379675606 0
3720.8641921950525 1.6323199347072025e-05
696.1671450261567 3.357920775455838e-05
309.66130094384954 0
887.2720042930835 0
377.80171520784324 0
395.2709160873332 0
1886.174263612313 1.429265643312466e-05
620.9713054271215 0
444.79204555240926 0
2133.7392210533553 2.0093717096538253e-05
951.3855741768906 1.5834811249049912e-05
1004.6801596631958 0
195.92046795304128 0
195.92046795304128 0
511.55522092982864 0
920.975017258149 0
217.2760107004316 0
406.62265919154214 0
224.18350464654722 0
492.4902743447037 0
902.7707837051902 0
233.6181940572548 0
221.2399580182739 0
362.17330534825453 0
731.3603824640031 0
742.7675065932134 0
545.6146693764632 0
598.8189183461398 0
226.65309037704776 0
1904.2063378565633 1.1683880917885685e-05
450.95982784447824 0
255.6334141540714 0
794.0997099219978 0
206.16467542771008 0
199.76204575604208 0
557.4877309956529 0
497.9141523756538 0
883.3814028254775 1.1413961557777473e-05
602.7316761223641 0
324.692260883767 0
197.2009938873749 0
952.7723471141751 9.85818993774553e-06
2760.4060600776156 1.3619558676773205e-05
5457.243397109953 1.4163804397861266e-05
1944.4062107957168 2.539469707935589e-06
1435.9922360346359 9.099346666909316e-06
198.80165130529187 0
1241.6075951048767 6.476264490641798e-06
518.4403482229519 0
1562.743133412781 2.6375829190130163e-06
1671.5628190716156 0
302.0527856195818 0
1906.0304883143708 1.3288918813565329e-05
10227.188540808102 8.280289298253009e-06
2119.1331664107597 6.624139689857779e-06
1688.2479026605877 4.4617295150843636e-05
844.2432160006484 1.2166634222308741e-05
731.8486805775298 1.2802785886208839e-05
1312.2141731265153 0
530.7900802146213 0
369.0475742749444 0
618.8192857309817 7.102878086200529e-06
10690.026641644936 9.43617293988686e-06
626.594744693806 0
642.7732664831933 0
1963.261170776938 4.561149044667332e-06
446.5834195988441 0
369.9641612595201 0
1031.8749822354614 1.0399190249719222e-05
273.35570052495757 0
535.9319397987482 3.960239198447586e-05
3036.1028294382872 0
875.3825937214433 0
566.2957454335842 0
1628.3746419948268 1.924264786531686e-06
973.4750632693972 4.1192608398349e-06
195.92046795304128 0
256.1852197376165 0
201.55478206410916 0
293.4064330649939 0
731.6669083595341 0
782.2849344292556 0
193.6155212712408 0
192.07889015004048 0
381.97506563928505 0
8641.5471014311 6.890072205200682e-06
9133.059375317234 5.945206008819713e-06
657.5869637902775 3.960631324633147e-05
200.40230872320888 0
675.0804673213322 1.4226369999430946e-05
380.63017760597927 0
881.5809341676189 0
658.4307555249387 0
207.25780732287294 0.0004520795660036166
192.07889015004048 0
717.571960698024 0
448.6399710666809 0
622.4358191592528 0
4506.094692072365 2.8136280890119383e-06
2853.6285055827593 2.4746472390360755e-06
3517.7625798011445 8.68430593941394e-06
2428.0364996081566 1.4582254854068085e-05
827.731963953241 0
404.4431850403169 0
599.5121124330087 0
711.2165143123877 2.379479369913863e-05
286.83780929072714 0
669.0419439212283 7.963812436289501e-06
742.9004906087303 0
235.21106073026735 0
962.0378313825647 2.190036792618116e-05
1232.8062490420998 5.358769626493757e-06
703.6407924167358 1.1665752849360133e-05
451.86063859111067 0
884.7353593642384 0
202.9633605918761 0
861.2630040288644 0
205.5244124605433 0
256.19536474942015 0
656.1219807402574 0
1641.6390618229511 0
1877.8589228390724 0
1053.1144742284548 0
779.377652381276 0
752.6515625473357 0
893.4125214990429 2.499937501562461e-05
1346.2957900531414 0
8772.79170998135 6.47138193125451e-06
307.9172362097572 0
532.2185914574037 0
788.313822081812 2.331654542063048e-05
844.143067916212 0
1406.2519908223167 0
1328.5858571492965 8.855983988380948e-06
640.7497786790276 0
782.9615759741024 2.4532352039251762e-05
3209.526809317328 1.2255252396923115e-05
467.80034997839044 0
496.93651926759924 0
619.9949217968609 0
1018.1252001033121 0
430.08209676322696 0
562.912717057435 0
949.542814306683 0
692.2313422014803 1.8940470102467945e-05
318.2599456793747 0
338.71740285887137 0
288.99641015146085 0
210.06445895499877 0
298.36254269972954 0
433.29424057102153 0
1874.7257367452423 7.631810914252788e-06
1292.1995661070628 0
2563.9276866873297 2.7901630013225374e-06
1970.7211068252468 6.322138231445051e-06
1687.160042827854 1.5302078328278546e-05
1126.3156884052644 0
462.3613284325975 0
1077.2248526161884 0
859.1772268972244 0
197.4570990742416 0
474.6777170374563 0
402.0514453298479 0
505.89921019994 0
869.2210042256498 0
411.446229521397 0
595.0709105602743 0
195.2802049858745 0
1243.9171206775993 1.143811408374987e-05
425.82412416339736 0
12871.750904548337 5.875005728130585e-06
10734.226333960265 7.157624002853506e-06
957.3319341799779 0
1175.85249536552 0
743.750854277493 0
195.92046795304128 0
730.0278351635872 0
789.4999135572896 0
806.2570697656018 0
207.60200045604373 0
688.461123645981 0
1083.349409094655 0
1478.693000310591 1.0632830636729342e-05
556.9647551384006 0
361.7673289210846 0
915.9111339472303 0
362.28372161583 0
238.0032066131865 0
806.9850277303682 2.2454753671352224e-05
1592.771712632381 0
1605.574637504845 0
818.7810464977819 7.5431278333873925e-06
56671.456825233545 5.894506025658784e-06
600.1030245020977 0
354.02719618848505 8.097821685966476e-05
1457.409250062885 0
1324.4336430855908 8.726064405336163e-06
17108.19463390306 5.613651652331583e-06
593.7325519659621 0
699.3999830432988 0
1007.5415156690663 2.3377212360934807e-06
1401.7595032984666 1.67690376488851e-05
328.74866987091633 0
1784.1552226900162 0
883.1472015697121 1.6230867864504717e-05
859.6139364841616 0
1838.4487174477213 1.4302366326508722e-06
923.3295572223484 0
1137.753631892705 0
1894.3439755920056 6.541677024321956e-06
1187.7943747324643 1.4129362793996717e-06
833.3278213749071 7.364095615417471e-06
560.8847471699646 0
9402.212266725755 5.361972845682636e-06
5210.093046810055 1.3487813760267599e-05
493.546708240529 0
1428.6574344225803 0
1396.9194952965554 1.3414805921295334e-05
590.2206565949361 2.7233115468409585e-05
195.5712336073139 0
333.9672253354313 0
230.7425119092744 0
327.44212255395985 0
442.034738189247 0
274.57171876184736 0
195.92046795304128 0
819.4380959785573 0
545.6130289566964 0
744.5881682875098 0
728.224781821926 0
592.5323956467216 0
207.8720433401549 0
566.8922920103897 1.5262515262515263e-05
4608.759783265659 3.9041606640196455e-06
447.143649695115 0
910.8011465918943 3.4973472621016957e-06
387.6653078593426 0
1051.7101779341253 4.509501519702012e-06
1464.3787258814846 0
631.0093010538931 0
346.84791103154276 0
887.3072173589337 0
621.4043124975248 0
198.80165130529187 0
854.2272096490891 0
472.51406976909954 0
286.56341087622707 0
205.14025468024323 0
1167.9944764065735 1.65694591728526e-05
222.0431970134468 0.0004943153732081067
589.2717677816711 5.571961887780688e-05
1448.9695851637628 0
365.61799177255534 0
672.7096650200517 8.158004225846189e-06
707.9656125336652 0
476.36917425450525 0
760.4223187080586 0
2262.443010251378 4.187367967053789e-06
620.3151202589472 2.142887755539365e-05
802.6689804936633 0
228.1718536945132 0
890.9716518816876 0
620.9295994798402 1.5544766336254022e-05
885.4053780489395 0
331.9258013996313 0
1204.7459960320484 1.1287446102444861e-05
641.7694682660176 0
1168.5175776068932 0
1074.1861305158775 8.974324457726444e-06
400.6445517046261 0
291.3196500608947 0
408.25824481890675 0
706.2100527849822 2.5903380391141043e-05
299.6123360116391 0
486.7435875496025 4.026737537247322e-05
1007.7188650880742 8.624778990038381e-06
579.117853802372 0
527.262041430151 0
1780.7473840068462 4.494341623895516e-06
267.4012549303064 0
192.07889015004048 0
397.7993014780838 0
723.2914459210828 0
484.94400254547577 0
590.6727341223846 0
586.4134818229832 0
952.074820715301 0
658.0436620787818 0
643.0330844941354 0
222.12551653779678 0
15231.159530188601 4.354849070003836e-06
466.44437684035825 0
4121.840235009884 1.3970103977488175e-05
1541.88903829433 6.291603226334135e-06
579.8921510585132 0
2201.8422660532797 5.01353654868144e-06
403.67547397661724 0
8704.30232178598 4.890220658981685e-06
3981.11486173203 1.0114782552404689e-05
7415.931706144099 3.3692154781759066e-06
4818.201164678571 2.0817373347100555e-06
3064.298560860312 8.114281541226636e-06
1737.3030143307608 0
6279.6918706493625 8.981592226731315e-06
8455.178423502579 7.413573617845107e-06
4183.363894795173 0
6452.322165452377 8.774007879059075e-06
6069.5932912766475 7.2959283248001375e-06
7744.037887681084 8.686034593580441e-06
6597.664136037249 3.0405395133312454e-06
9354.286793627629 9.587758350138543e-06
7898.498976652669 1.0888837671022807e-05
4413.752957987453 6.644010590552881e-06
8603.440802116347 1.0568436571546334e-05
6969.091467678224 7.4827709199568e-06
1867.9419331709657 0
12556.565878897212 3.051788080783882e-06
5470.129015847398 5.40217578031728e-06
4578.869136261225 2.7689095757199856e-06
6629.160276955692 2.519551721357736e-06
3192.6658739316294 9.388172779931842e-06
6092.498054921637 1.336838821799385e-05
6330.589830697859 5.11659177681836e-06
4499.205843987236 1.3180980723547968e-05
6621.967282202385 7.658433850277618e-06
20824.43015021641 6.5493930272043075e-06
6057.437978063937 4.586098095327945e-06
5714.103737954344 4.403695581331854e-06
3630.0474655888884 9.149326152128896e-06
2446.4397241452425 5.3918506739398585e-06
1677.642580065998 1.2746265822099094e-05
9296.026259285469 5.660951464417382e-06
8520.728607473784 2.9531715585953535e-06
4429.361871035762 5.116803839649601e-06
5573.013805157519 1.6143274792437843e-06
1562.598242045924 5.1866143855936596e-06
1514.9307799202775 0
322.788574897143 0
970.6623716680995 0
192.07889015004048 0
541.5264851681407 0
229.05407650392326 0
695.3469244420521 0
610.633225460805 1.8182479362885923e-05
681.7467808027437 0
1395.963517991014 0
1002.7013296856439 0
661.8257216712158 0
325.3389557163574 0
465.9368229245678 0
384.31378345959365 0
641.7066489151622 6.934171597633136e-05
734.90946325972 0
272.22215121264355 0
233.74523401335694 0
738.796068008682 6.841817186644773e-05
1479.759067203725 2.8218296743608557e-05
198.48151982170847 0
633.5024265196986 0
895.4807959766812 9.147038646238281e-06
1003.7792686342445 9.733250535815441e-06
1443.297223138312 5.178342101992626e-06
1513.7164465859328 0
209.94222693399422 0
1674.5018604629256 2.7960530914561006e-06
604.8611099334566 0
649.080023600152 0
342.30480107791425 0
363.7547337463655 0
219.93032922179634 0
5080.07796597889 1.6089457383049757e-05
1589.1326845080016 2.5181305398871877e-05
2128.2017300157936 7.098635540839971e-06
570.0901459653201 0
374.8375886984824 0
486.10013760898045 0
919.888402445032 6.141374439599583e-06
1999.4724884296502 5.546465514850661e-06
1613.2995214463128 0
216.40888290237893 0
216.83572488049012 0
526.9946277025656 0
203.6036235590429 0
583.825205913192 3.241386016660724e-05
1317.5896676935834 0
793.6279896431039 1.0580387136365319e-05
905.1499680954072 0
417.2851525233607 0
621.227909872996 0
475.5748390755555 0
621.8647010006019 6.6424880103091415e-06
704.6470578945455 0
722.0570726145068 0
363.0796494599317 0
497.2142145493313 6.036095853202149e-05
557.0852752263379 0
290.9995185773113 0
1560.8720051891905 4.2288215331592466e-06
603.8878859438057 0
696.0963447685892 0
1506.7602363547683 1.0689985087470804e-05
205.5244124605433 0
706.6435940766511 0
202.4737477346309 0
209.88000419493153 0
863.6193843937564 0
234.09233628127154 0
417.771586076338 0
437.3230717098478 0
379.2597686012549 0
943.1351881570102 0
428.84552209009036 4.570383912248629e-05
745.1998596821052 0
511.0759153961799 0
612.385287809506 0
1096.4425231881823 0
746.5338144571473 0
614.5449917583672 0
194.63994201870767 0
528.5966387419777 0
399.10218412331534 5.563901407667056e-05
3547.5962596539184 1.353584766215607e-06
719.8610916034645 4.3922257604040845e-05
463.2244361727521 0
201.81088725097584 0
203.1234263336678 0
355.4526572721026 0
668.9368978963794 0
201.58679521246748 0
407.8218995665659 0
704.7189140325015 0
560.6063645549735 0
210.0062532307109 0
560.4465552812035 0
611.5534241775114 1.2389884897969298e-05
490.8121114097086 0
477.9600712427654 0
290.4910744563259 0
785.4800571667612 0
574.3302157941547 2.495819502333591e-05
470.0874621035207 2.8130977832789467e-05
1658.7330352917809 5.676399800190727e-06
192.07889015004048 0
432.63150748703663 0
410.63351921265405 0
445.65926644812225 0
406.53180486700876 0
2091.8074263099356 1.9210118353539176e-06
617.2980633821961 0
973.9576988320874 6.361768317121427e-06
206.0046096859184 0
1521.118153783752 2.678150576338004e-06
195.92046795304128 0
439.0089878929274 4.127626202171132e-05
3826.992975201786 2.991985219593015e-06
1271.3221541805804 0
195.2802049858745 0
2927.253510022924 0
663.6709812464198 0
932.8556106565338 0
1326.8155845981307 0
561.6665411662012 0
192.07889015004048 0
503.7573551034747 0
550.8923663655871 0
736.7949222165655 0
662.3229366719123 0
759.9971834676799 0
296.9539641719626 0
1286.6347020036508 1.6610605871849176e-05
607.2403531084029 0
313.43496271368895 0
635.8960453907407 0
751.390348250709 0
642.46420183078 0
619.8883767449603 0
853.8623379445978 6.715014773032501e-06
2124.717364358966 6.647212491441714e-06
718.959521579312 0
589.1594275074942 1.0140650826970075e-05
435.46652492920134 0
466.6111575352203 4.0160642570281125e-05
550.0058970140065 0
820.6951690569506 0
253.30022529627558 0
475.49634727406067 0
3116.0489288722692 1.850095195807348e-05
883.3949568627326 0
624.7010624946614 1.4676529294352472e-05
577.935501523004 0
1060.981218035214 1.3715069432539003e-05
1375.5840205952316 0
404.16094331640795 0
769.4680339410621 3.328340822100183e-05
797.8361344125263 0
195.92046795304128 0
1176.4728753469467 0
339.9444562816614 0
246.01464250417186 0
791.564878286531 0
228.25374779496474 0
572.6085136361761 0
3173.3402692685663 3.880059597715421e-06
1129.7449611821903 0
912.1217462598116 0
366.1870095606195 0
7357.205592295544 1.0687316598013381e-05
771.0483903380689 0
1023.321592953282 0
2203.305968444961 1.6873080687071847e-05
1857.7291086139323 3.946353273598699e-06
1082.461523936759 5.7800127160279755e-06
312.60122659642406 0
26557.326258352776 4.696502608437548e-06
7373.221885947082 2.6995726576482942e-06
202.42159961965802 0
252.24295541961766 0
557.8369822297378 0
337.2020919022509 0
1155.7075546237177 0
606.653939472389 0
987.1318322590879 0
224.0120056374847 0
233.77406386553704 0
1727.73831814137 0
680.9317544630917 7.89041787653074e-06
613.246594475627 2.6656714826464785e-05
276.38780300518323 0
958.4736618487019 7.056366253634029e-06
1820.6977502432574 2.959254031243804e-06
192.07889015004048 0
646.3024626182854 0
625.0702865899622 0
202.9633605918761 0
759.0230953739842 0
611.5678571879076 8.420272648428356e-06
1515.336982067585 9.4948727687049e-06
209.07496164210465 0
450.82129399676415 0
198.66445209804183 0
544.8683912673449 5.07227998985544e-05
371.7673392171628 0
667.2262995421647 0
576.6188169331425 0
494.6972984550552 0
654.2110614837901 0
504.6025431824004 0
565.9924629754527 0
453.1039924486744 0
1353.918398981971 1.0976315854465027e-05
207.4452013620437 0
864.1383012862949 0
523.3517161441403 4.3954111907168915e-05
662.2016163068303 2.329807557895718e-05
939.961631588761 8.726587293507128e-06
1251.604787621581 2.8792887005194237e-06
216.05033564076552 0
548.1807603017542 0
1741.8725334151914 6.91357341869292e-06
710.9121113909905 0
432.0028856647274 0
616.7544438817714 0
331.584277333171 0
330.96670302776204 0
474.95871018919104 0
823.7416438364704 6.7883132399261434e-06
2955.2465650374425 3.3940414208815003e-06
5601.413905651016 5.898398477569731e-06
3280.990458552526 5.656324548589949e-06
4179.921678090185 1.1465557766195553e-05
5084.3082556509735 6.283370588484781e-06
6381.356418242796 0
4310.421377379188 3.6082195240758447e-06
1271.9516910928849 1.03787733327798e-05
1013.8047743983748 0
356.81478534931045 0
390.97812164016796 0
504.1665065966414 0
519.2831231945793 0
1072.2699975115866 5.545911831093709e-06
353.5997750489381 0
1393.6566966313403 0
5976.006882680709 0
192.07889015004048 0
221.31236026068078 0
202.16303188291758 0
196.9681709902233 0
201.49075576739244 0
209.83551643946643 0
201.2026374321674 0
232.41545708154896 0
242.9797960398012 0
192.07889015004048 0
318.6588787589171 0
288.4523854687999 0
275.0309260995833 0
202.06699243784257 0
209.8461874889192 0
195.2802049858745 0
458.54941532305605 0
247.62932472994103 0
192.07889015004048 0
195.92046795304128 0
203.6036235590429 0
313.40872242814936 0
216.0887514187955 0
209.8898417821351 0
194.82287429504103 0
199.281848530667 0
360.971114274826 0
195.92046795304128 0
205.5244124605433 0
279.47478516830887 0
215.12835696804532 0
201.6828346575425 0
193.99967905154088 0
383.627907499667 0
205.14025468024323 0
215.12835696804532 0
201.85745183040615 0
444.85470958749374 0
201.6828346575425 0
302.52425198631374 0
195.92046795304128 0
316.93016874756677 0
193.99967905154088 0
257.6858360669137 0
195.92046795304128 0
295.36494789890315 0
343.0386697420352 0
213.79858003623735 0
275.8419887676451 0
198.284515831811 0
251.34894768205297 0
193.99967905154088 0
213.20756806654492 0
196.46926478204142 0
317.53041527928565 0
285.40273712293947 0
211.50020015410013 0
305.40543533856436 0
345.0810856588039 0
222.00275935236255 0
238.51678653337376 0
368.7914690880777 0
222.27796010140796 0
446.8316114231952 0
198.48151982170847 0
287.5362779821818 0
204.75609689994315 0
324.14099921385514 0
305.2576823461413 0
305.99913372630084 0
195.92046795304128 0
274.1240160855578 0
199.76204575604208 0
192.07889015004048 0
209.79283224165533 0
213.17132676651661 0
203.6036235590429 0
203.6036235590429 0
212.4272475753104 0
204.76503080181058 0
220.35944163596133 0
195.92046795304128 0
217.1691951758895 0
203.85972874590962 0
195.92046795304128 0
197.84125685454168 0
198.66445209804183 0
197.84125685454168 0
198.9083617998197 0
199.3100954262773 0
198.58002181665722 0
198.32145407991678 0
198.0546778435973 0
192.07889015004048 0
199.377887975742 0
195.92046795304128 0
192.07889015004048 0
267.1642744814199 0
197.2009938873749 0
201.6828346575425 0
200.53036131664226 0
196.68878351364143 0
208.72572729637733 0
209.11545258073969 0
193.03928460079067 0
205.65246505397664 0
201.95723307204253 0
199.76204575604208 0
200.8596394140423 0
193.99967905154088 0
203.6036235590429 0
199.41281141031473 0
202.39627053524265 0
192.07889015004048 0
202.6432291082927 0
193.99967905154088 0
199.76204575604208 0
192.07889015004048 0
207.4452013620437 0
195.92046795304128 0
198.5928699029549 0
195.92046795304128 0
199.0939452685637 0
206.51390977343746 0
192.07889015004048 0
195.92046795304128 0
200.7224402067923 0
197.84125685454168 0
200.7224402067923 0
199.76204575604208 0
193.99967905154088 0
