FPKM Num_errors Cov
397.3503873459734 1 29065
1031.643153087166 0 229876
395.60330591933075 0 9989
873.3688877823516 4 353751
227.20188720604787 0 414
270.50006461129834 0 2042
519.4898852949246 0 12441
504.06244892536984 0 87125
632.8935828162327 0 24877
233.05572004871576 0 364
581.9783835105204 0 42267
360.8095240973982 0 25359
650.8483528315869 1 97926
495.61257800586617 0 30318
220.83584398964652 0 2012
740.8389096067475 0 31627
760.9939652579721 0 16838
305.8128754085796 0 2627
1353.9714843172565 0 36655
451.0927002104617 1 24659
204.8841494933765 0 1120
710.1821457312899 2 96131
1164.7905412430666 0 154332
876.5444395691821 0 89672
754.2271620042588 2 96203
207.4452013620437 0 2538
222.71041842133639 0 2203
259.6020076874009 0 3514
519.3757379810078 0 55837
2086.895712699961 0 138526
209.5666697010143 0 3655
532.5017846928814 0 19822
1115.9346974785192 1 76689
2285.1019174530616 3 337271
830.7784689373124 1 72447
486.52638224725825 0 15451
335.96344058970715 0 4810
198.80165130529187 0 207
333.61969009171474 0 11724
884.0898367782085 0 52011
601.5952823956131 1 28658
530.5351414144221 0 4005
321.26743400901927 0 5185
818.8367756605562 0 18331
45746.44089993048 23 2453098
842.2777575898108 2 160274
204.82594376908864 0 1173
390.0847860532822 0 3554
1789.3843431212888 5 95022
254.52496337328765 0 3114
867.1773893671827 0 11061
235.40335092832737 0 3309
281.88483162019145 0 3889
271.0713337242446 0 5645
461.76360785527555 1 15506
954.1951885889667 1 184551
815.4332552005033 0 76840
640.0792851680242 0 81310
976.0401494387875 0 13974
867.7325002536594 0 33656
215.12835696804532 0 1512
488.86821527330295 0 4454
981.3567611240571 0 32443
811.5402201965162 1 29364
192.07889015004048 0 100
393.9816624680601 0 13435
201.6828346575425 0 210
844.6399776762836 0 66620
210.20633540795055 0 1751
667.726669348503 0 83953
934.509871162455 0 65924
387.2763645277979 0 35889
602.4901087967701 1 37797
560.5228798388518 0 29036
601.4677740451391 0 25364
694.755748302368 0 108511
426.7886228639372 0 7999
1690.7779875622155 0 59417
203.05482673004275 0 740
727.0185992179032 0 42392
237.05345955102558 0 2530
221.32445019869178 0 1786
418.37737334527276 1 14158
2354.5239234708906 4 777777
452.45973140767154 0 6949
305.7688278334428 0 5890
249.9586623819193 0 1952
594.4424087339078 0 10677
463.8631884569985 0 15818
205.98174315137675 0 1126
1562.0690728391835 2 265524
834.4018338199004 0 14987
196.46926478204142 0 358
730.0491772624927 0 34207
839.586231308981 0 62506
436.3209188965419 0 31802
717.4952985192427 0 24467
203.98778133934297 0 531
251.93603266191352 0 2820
224.604248882114 0 877
583.1444617289119 0 16546
536.7373704756773 0 10898
436.1776778893396 0 61880
206.36167941760758 0 4190
1003.3553513552723 1 89847
269.2461180569208 0 7219
1999.9603276767941 4 687204
856.7633162073471 1 37468
1198.5203200234037 1 392167
338.9392082439256 0 4235
468.70322458852274 0 30502
948.8247866066619 0 42235
973.7481092436768 0 116599
1977.248454059659 2 152865
686.3113537264561 0 40733
228.20449679749038 0 3089
806.7280636277803 4 246329
379.76515650074805 0 48242
739.2253518745398 1 53110
192.07889015004048 0 100
195.92046795304128 0 51
474.3951182105689 1 17906
1305.211109461888 0 46547
1610.129076687488 0 101430
1917.7835855320707 0 73385
615.439438377272 0 46139
545.638840229729 0 32384
238.48930306737455 0 2297
814.2552093028766 1 86903
323.75964039734595 0 6068
3966.5813808366793 10 872496
224.25210425017224 0 934
1313.8918187353559 1 363908
1810.6422844932792 2 225766
476.9199471363829 0 21974
604.4394733453225 0 64510
5887.33200253125 0 335624
1254.632462845408 0 317775
549.1582317899449 0 11722
609.115359486298 0 51373
745.6686281305352 0 85212
242.54606951365594 0 7829
1079.2722869397658 0 25566
445.731620987048 1 32836
671.5373505630262 0 31815
356.169142021075 0 2596
566.4886667750069 1 35391
827.1803527815281 0 27992
951.9617189875177 0 20320
919.8643159448993 0 30889
199.76204575604208 0 52
1218.6901798099693 2 949490
319.4374580770062 0 10893
611.6083912151785 0 54449
198.32145407991678 0 413
2112.9811961612345 12 745290
1436.541829809476 16 882886
243.7655733176877 0 2094
385.74739870132265 0 8736
641.587547892454 0 72817
596.9552923090022 0 13830
200.53036131664226 0 1044
313.22338314818 0 9295
480.19722537510114 0 5250
207.18026496183674 0 1564
485.9833055228308 0 20494
632.076747800883 0 32249
562.3416018009694 0 20640
1190.3317915805926 3 358812
325.67785796162883 0 14073
530.2852062115397 0 143836
698.9633213239472 0 44577
782.5553941105334 0 27093
487.763969532527 0 12570
417.0071904930879 0 5319
440.9368451330858 0 16184
197.9890098469648 0 670
197.62783586548608 0 463
612.4239088706538 0 28855
579.356071747075 0 57761
1431.6912763898627 1 128203
2632.3939569923336 1 167198
1875.7903000295257 0 489263
1731.7649803651316 4 378668
842.5568956358313 2 96284
677.0489849167487 0 11632
676.1825052235918 0 114763
1089.5574463851483 2 473933
695.8811335946574 0 58872
9190.545884990775 4 942601
10106.10673514787 6 549820
3384.915249519642 7 760412
10802.463178627071 7 1209154
318.8509576490672 0 830
446.6781063756786 0 16511
632.0676011870665 0 14808
13314.961652480846 7 1507716
336.4859171699291 0 22248
384.9381007913155 0 6413
450.2997285604427 0 10784
1043.145283030617 0 96397
2055.118855764031 0 98434
1584.716624179666 0 240910
905.7043522092998 0 12967
562.3982595006754 0 12883
640.7543317695108 0 43033
222.40713596320475 0 2200
397.8564298301613 0 13360
265.7844564291835 0 7057
639.7610010005428 0 20817
307.6994060837848 0 14017
1701.543367971838 0 506267
2259.86403858855 0 111182
1129.9356295622115 2 331194
203.6036235590429 0 106
702.7686393364605 0 8781
301.6220632598514 0 2591
977.4450822516421 0 117805
236.31191456744978 0 2153
236.677207456753 0 3943
1715.8710539561246 0 50919
301.14629473088957 0 1803
605.5838057976357 0 19232
199.76204575604208 0 676
1111.1306464489007 0 48592
519.8004001805823 0 29768
204.49014151358156 0 692
195.92046795304128 0 51
201.6309214439884 0 1942
210.13430582414426 0 1094
221.21085515612995 0 691
519.1684122440973 0 11217
551.1571015410998 0 52941
1049.4641760969212 0 19123
5793.563922074682 6 835499
1910.2018383895195 1 399287
1411.8357879106081 1 75708
639.9712344438586 1 82629
339.4802304511815 0 8837
451.66829874506413 0 30334
331.34122130802166 0 16129
284.1852912838932 0 3107
1809.4048490427767 0 166736
1151.6847472163424 0 204460
815.6463045099598 0 78134
631.7358285586255 0 21707
558.7829265506429 0 31855
208.29888531826612 0 976
474.98796542234095 2 47232
602.1444540858352 0 26333
4459.288738424097 1 301807
646.5634690032159 0 27434
954.7406372646242 1 316625
2566.4639028047673 2 70816
891.6789041331456 1 65920
586.4204757580763 1 32362
223.93197276658884 0 1399
1100.9878470839383 0 26367
801.8404409643124 0 45085
611.2657943643262 0 12093
786.2253521414247 0 119318
650.4604401183195 2 46394
2344.3264632791797 11 1461551
312.3718786678867 0 5448
262.1585821926613 0 6756
2720.168255024832 0 123207
5086.138621006319 0 230371
873.536376624354 0 68217
556.8974454418523 0 16961
974.5335912751358 0 18265
647.2258269347404 0 8087
623.595137792033 0 9902
864.1571062126033 0 148466
723.212591579745 0 15249
441.8512942142385 1 25304
201.6828346575425 0 105
200.53036131664226 0 1566
358.0737898393695 0 11092
680.6706744279952 0 14352
347.5175214227203 0 10765
477.16489035384626 0 51299
803.6516379892167 2 74893
473.89799220744766 0 19861
2144.745577859279 0 264075
525.1461325350532 0 42924
1139.175571582163 0 65535
700.9703497271477 0 17882
1289.6876353483199 2 195388
4071.9585699521976 3 393249
5329.780523173942 5 521660
6344.166275116066 3 858753
3390.7902470512918 7 879125
5825.800891732937 9 1088856
646.2644682325338 1 13963
932.3909130097755 1 53639
500.71687266430064 0 21376
572.8191629240753 0 91852
545.3011924325572 0 43010
642.4550539357456 1 9867
745.6216348429314 0 85983
193.3594160843741 0 151
971.4231829745136 0 99884
499.03981097939044 0 42349
752.4041606458409 0 57974
323.26590527341136 0 5638
192.07889015004048 0 50
868.8192568033946 1 82323
1810.4366275423365 0 199349
12806.485952388919 7 950091
861.0026368417324 0 167199
928.8571735161079 1 107355
1738.4863857592534 5 216769
1511.1942331488153 0 69628
494.81028603749644 0 19707
628.3535263955531 0 38111
464.58777632746495 0 19108
513.4680331332331 0 14970
1082.6698737110344 2 97513
1266.5238435614453 0 151327
275.66418783146133 0 4449
797.5802630506639 0 25537
799.6309998849825 1 127597
752.7686623974192 0 45853
298.0424112161461 0 1862
342.30480107791425 0 3386
555.7145574498802 0 76958
1186.701169358127 0 150748
1321.6206040421862 0 56077
329.87678484988766 0 6612
263.6117182059176 0 1990
936.8409471282575 0 137542
515.5397411627085 0 4697
408.13793864767877 0 20611
731.7721482220364 0 22668
496.3535627914892 0 82304
1910.66683062752 4 333732
597.6939043629352 0 47298
1007.3219599907807 0 26746
402.38970090026856 0 19378
486.0273846290671 0 10754
1094.838308240429 0 96329
1366.6326512152789 1 197440
698.1000552008693 0 26168
518.4036283115807 2 56947
3067.958386595214 8 371358
770.4686766089987 0 117729
759.6061351117702 1 54772
444.85470958749374 0 35898
849.0827190947208 0 63213
1053.575256943647 1 116833
681.4273900367486 0 111396
1275.0583353762986 0 155002
467.51493044267795 0 36753
921.6843903626145 0 115883
3126.5425479431997 6 959552
4437.97715368185 8 990048
203.6036235590429 0 1219
553.6538359641194 3 51019
473.70628357003085 0 7152
391.0260557660521 0 3359
501.7333433616208 0 4310
1698.0064367736395 5 467644
2605.0592766104714 1 122062
1070.916034368281 0 35125
686.1592859397838 0 28221
579.7981332049868 0 14489
195.92046795304128 0 51
1719.6710047550682 1 114150
781.3547621815012 0 21153
195.92046795304128 0 102
459.6775780859017 0 4906
11520.008268304737 7 1199508
3416.1469857353923 4 249881
288.03151990747875 0 26542
781.3203824267707 0 46982
197.2009938873749 0 308
928.1933610170531 1 220597
781.8606793722239 0 27476
568.2468342632079 0 35205
856.4125215904883 0 194843
718.034080717098 0 31588
691.2942969943184 0 14576
387.1707824985129 0 5140
367.6761723065613 0 8901
642.3738778227445 0 76585
761.9370917951794 0 31536
457.83924256163647 0 35754
578.2050822169482 0 18212
521.1274906943462 0 7461
237.95619429741552 0 6442
192.07889015004048 0 50
807.1190207937756 0 68703
498.9126044153615 0 20260
931.4894611839744 1 104992
1948.3758221302687 5 683173
925.1197275120595 0 122817
536.9885505627965 0 8387
330.2156253162779 0 2063
776.2736054943924 0 112958
3767.1628466469942 8 1477808
463.47035535786847 0 11582
815.6057357934324 1 231418
1147.52071853657 1 60937
346.22219949544797 0 2884
2028.5749761752145 2 146272
4364.807514098216 3 512427
5827.6408050244345 9 890474
497.59038131752203 0 21113
435.71286791716426 0 23478
586.7175898458363 0 68575
532.3822541821571 0 12334
366.3519269796027 0 39195
2175.6135624327917 0 35679
1365.429219386591 0 51538
977.9532722205035 1 52187
628.9943389446657 0 17192
2089.178061865274 0 172939
498.4091497745124 0 17515
1083.8145043274951 1 216956
211.28677916504452 0 220
207.06104358174363 0 1078
316.6557703330667 0 2308
1806.3680061339574 3 198901
2809.272015208548 0 487033
379.5999761270291 0 11660
382.6516110293009 0 22611
886.6706879690183 0 20542
1199.3071850724787 2 107706
1024.571397576804 0 181360
207.17080294754368 0 755
514.984846591164 0 26543
405.7714287742207 0 53130
1039.7193385573585 1 56295
884.2926567817956 0 64223
1365.4119985205778 0 213258
1389.7669920173482 1 91166
625.8795948762235 0 23135
602.1498589030905 0 17242
745.3744089457755 0 103223
1178.3420301381918 0 38035
800.6562853603082 0 26886
699.0256283323525 0 34573
241.55266783728453 0 6728
206.93299098831025 0 808
517.0168548813273 0 19111
1526.5126796656343 1 133515
412.4600167670869 0 15783
853.2413884872026 1 126601
1245.1971384667208 0 54455
223.8271021081736 0 5069
285.2012012783969 0 13883
873.4118163743778 0 150056
3856.2476878274733 4 686612
2727.8448055682243 1 512681
997.6700344551189 0 113750
1405.6415697170955 7 153313
809.3831364311916 0 80273
335.67335077027235 0 10835
564.8444052412225 0 12792
564.1562371073516 0 23350
1247.7822757933495 4 633704
3777.4600401459625 1 454289
1721.470114721632 1 151463
1760.9432501036679 0 88011
621.0750863695215 1 31041
479.8426181932857 0 16238
686.5510694067469 2 94362
1156.2904110298591 2 377446
796.6056275852454 0 69467
795.275276958971 3 196874
480.94419883679575 0 4507
847.4535610331299 5 113168
761.2294069500321 0 87981
194.63994201870767 0 152
254.23013103430358 0 3706
274.47411061440266 0 2072
1799.1784253225906 1 106314
536.3056033978185 0 50258
6092.816989303032 2 326720
533.7703585023049 1 33208
919.5742319370211 0 33273
715.8019168591413 0 19751
262.6844408051933 0 1983
473.259450536846 0 8254
219.24433318554617 0 1598
192.07889015004048 0 250
993.0219928649146 2 153545
218.8418821776128 0 3418
1727.182637043147 0 37317
939.4388911467087 0 56979
570.1937390746145 1 26420
642.7658133111809 0 14724
264.2456731635557 0 3852
1007.7043718260984 0 198048
220.00060198648535 0 7044
1063.1098084706812 0 45385
999.4698936554731 0 25757
311.7265769962293 0 4463
685.5170177121169 0 51928
713.9185846671215 1 121911
552.2149104890561 1 81217
671.7732180672942 1 96178
289.51527260797 0 2487
209.00012571087734 0 2285
618.6554371151891 0 19164
7912.5882913401265 22 2317189
2419.95881724951 0 216069
250.05674521944275 0 9178
573.7268396188275 0 11201
200.00214436872963 0 833
1149.5372778650922 1 41893
624.4746644537111 1 114440
260.9677245362847 0 5027
193.3594160843741 0 151
232.15353132225343 0 2659
433.54949491009137 0 5530
3494.9310553042355 1 486724
3805.4951298145083 8 567618
676.4568880828222 0 85755
822.7968576539363 1 202402
733.0893494616361 0 41601
488.6060123438918 0 11447
571.7955400420279 0 25750
999.7227295444403 1 198301
788.186994872048 0 45138
1180.832158172395 2 130330
225.97516488240052 0 1000
192.07889015004048 0 150
537.7002145833699 0 26734
239.41261665130043 0 3490
207.4452013620437 0 54
1364.7290640215338 2 119720
1022.5240286017417 0 70802
206.76727586739648 0 1830
202.16303188291758 0 421
254.23182485167703 0 21442
561.9482120029888 0 20333
876.2243324419287 0 68655
787.0989426588168 3 187269
491.04038852873254 0 7925
923.5116538862374 1 101208
719.3087659882696 0 26963
5640.389164337716 4 568212
1101.7168742814392 2 434770
915.0584220018308 0 169121
655.0076638475749 3 105372
620.256217935883 0 17599
235.77683765917467 0 3928
320.8677859956426 0 3341
2574.800565255902 2 417563
508.2887630595446 0 16936
431.0424912139772 0 29622
697.2432979824044 0 113437
354.21607095316284 2 34485
549.0501198442696 0 16722
454.04971194177307 0 3664
487.95425747731434 0 6605
516.9475795020742 0 23280
4804.714025005572 2 310177
773.4634962727711 0 69865
531.9846492194005 0 7201
836.0397026170094 0 127966
1097.907771974725 0 86882
687.2965375479858 0 93391
220.18306460357272 0 1089
238.58220039689238 0 2360
1045.7822482805386 0 11978
635.4599023141304 1 48467
192.07889015004048 0 50
878.9814574584592 0 30889
266.3986453388638 0 3606
858.7475884558856 1 146866
316.64641584166327 0 14507
317.47896557656685 0 15041
561.7453093427162 0 41090
559.3663000982899 1 58389
1151.9869073472653 1 92361
263.89969255396863 0 4740
694.5164156484449 2 265218
503.46584260468654 0 39055
483.5149516595109 0 41535
836.1972042159109 0 60730
541.6083634934945 0 20020
2576.1508173214916 2 183073
4477.36236961637 6 1952214
210.6309000279468 0 2248
255.22482528686626 0 3189
206.74673267058904 0 592
286.63015643651084 0 8282
970.1492009979048 1 122229
1211.6207106796182 0 131205
619.749747841012 0 66628
682.9169460768164 0 20088
1825.5633500277152 0 56075
1209.6350460575525 0 49751
379.73996582663 0 5931
273.8724842055994 0 6844
684.5691644947442 0 16038
335.1595426618064 0 4624
238.02618255698437 0 4709
390.9661211588645 0 10279
315.6774803335448 0 1890
203.6036235590429 0 53
662.2367921999661 0 12929
1923.5446428684177 6 724538
500.72565675988676 0 8342
291.9599130280615 0 836
697.2463712446469 0 49005
93310.8687836211 38 6096721
1086.7987076085162 1 53186
315.7469627842425 0 10274
701.5363176384878 0 63368
5911.235914909098 2 732446
212.10997440854467 0 773
839.9373056670673 1 191532
958.2472831567394 1 139687
575.008354800664 1 69751
1358.0207568206843 3 118071
1147.9694220967247 0 51996
745.074014892007 0 15516
556.5611110938825 0 16661
667.8131060187142 0 11821
287.61725985945185 0 1722
5108.604859776645 6 287241
342.71202541136796 0 6334
736.9394251431654 0 37791
509.59258970312635 0 20959
1270.9806054498558 0 93961
379.86127880988266 0 7515
1142.0342707833927 2 109400
900.4846162560079 3 220575
1118.7356132593727 2 72222
1216.6484124142728 0 76326
856.637928852377 1 101015
979.4937439262523 0 72157
245.58658097755176 0 895
928.9580278126691 0 31678
764.473982797161 0 17711
221.95782861782453 0 520
437.48408912478703 0 6719
1830.0454174697302 1 547359
1524.315474714233 0 107928
1313.700489934711 1 88228
1809.1866874452671 5 764350
3954.8341126651126 1 647544
2768.287227745803 19 1890886
2508.8222067207116 5 645887
3314.5305129762687 5 1195847
5218.668895303822 9 1571750
4192.161609552544 7 947214
4991.495733115796 7 294949
1777.0551266979894 5 731809
361.38271189657615 0 2634
1165.2197254879773 1 316664
742.6759390513458 1 51038
760.4952057869103 0 16629
647.2143936674697 0 10614
233.35351677763055 0 2612
299.6430686340631 0 2652
559.3721438949478 0 14561
216.3414868005719 0 1070
720.96588070271 0 40350
677.4777550347949 0 113572
794.5081365297128 0 11375
209.19137309068043 0 1198
236.58968547642974 0 11024
302.5390272855561 1 10238
433.51743461423905 1 32839
256.07148881581713 0 2533
435.16950093415903 0 11781
296.6506817138309 0 7336
197.4570990742416 0 771
2517.948252216725 2 226129
220.71610649968287 0 632
363.5092996089516 0 4542
865.5623586989823 0 15772
615.1111443372042 0 21456
621.708407710131 0 47580
1486.476295797408 1 277439
856.4410256518328 0 103890
707.5409364807782 0 16392
1427.6204226793684 1 120406
624.1624413565798 0 59791
211.97277520129467 0 1545
353.2077100759046 0 4873
507.62743881056315 0 7532
213.01925542914293 0 2828
450.73591646863457 1 16309
214.42988827659065 0 614
813.2174808627727 0 58426
695.6017742113361 0 27704
501.5820084784723 0 7834
203.6036235590429 0 53
285.2828849418934 0 3119
193.99967905154088 0 202
571.3758985361204 0 7288
209.26489611083355 0 2070
1219.585975652315 1 180323
601.2561771671011 0 24416
938.4726112475062 0 49103
807.1977282675949 1 197304
192.07889015004048 0 50
204.37193911964306 0 532
493.60354791210403 0 6296
988.9443585134129 1 22654
402.87175216898487 0 7341
593.8931530446828 0 16078
358.3643293370755 0 3918
673.939790951638 0 22280
753.8624113249375 0 23941
224.11764902706722 0 2917
211.50020015410013 0 991
337.35701995006144 0 9133
1149.7609713436188 1 202622
507.26434231207764 0 31691
212.56730509937813 0 1826
210.18918550704427 0 766
577.5875549522755 0 13682
459.4527052388968 0 4186
742.1379518568564 0 27046
715.2164185231285 0 16756
1086.2061237984788 0 26013
244.02952950922585 0 5463
530.8257805997238 0 9258
242.019401589051 0 1197
264.89425123419215 0 1517
628.2008701960699 0 18315
355.68490952489844 0 7870
478.8166583521477 0 7977
363.8078005868875 0 3504
606.3835203722518 0 44513
705.4349976142012 0 17445
512.4949350521821 0 3602
1117.4121801066578 0 20652
1591.319242943043 0 43909
199.76204575604208 0 156
1142.689883411292 0 63655
914.9891353286233 0 17149
289.952602103971 0 8378
273.7764447605244 0 2138
368.00747361807754 0 4694
206.24470829860596 0 859
358.6961599778663 0 4015
192.07889015004048 0 50
917.2505769626548 0 18624
197.69350386211858 0 669
198.18021960186528 0 877
483.5179112726103 0 7426
311.25714106173996 0 3484
590.1857005309205 1 31648
471.1285826926075 0 7481
777.3826386445116 0 32580
236.43165205741343 0 677
325.2535873207352 0 254
215.9735040847055 0 2811
560.102043677518 0 8748
343.1609421836817 0 17151
496.3318521477045 0 3876
536.4184116348907 0 8797
259.38333325861464 0 1688
1167.8915653258 0 22497
635.3366463202537 0 40023
742.3849104299064 0 30147
498.7057502259692 1 50629
4867.319656449239 1 359831
610.1706077099619 0 40979
477.51100931736374 0 16532
395.5347607166603 0 2677
573.2735929974192 0 38501
454.429449117546 0 20228
833.9297094754157 1 10854
524.1902338299478 1 22651
461.16007315134163 0 5402
247.60715112068854 0 6381
850.1185702875908 0 26334
556.4293863169187 0 20423
749.4794371789966 1 48384
466.24754806008303 0 55951
248.30561981214322 0 1422
1116.3479673016768 2 92119
196.38145728940137 0 1278
602.2740311149047 0 8466
601.5136067505385 0 18633
536.9784411475255 0 15935
499.13394419224636 0 22088
552.7490008408997 0 37842
607.7581883158156 0 53157
516.5154547887469 0 21916
1685.8596602860193 3 130776
5618.9886134314465 0 367132
939.9463673263555 0 62148
729.6253841556536 0 15954
219.09188962193505 0 3593
444.98276218092707 0 5560
462.24372911209736 1 29480
491.6619341309317 1 8191
665.5095469037155 0 49373
926.7383634572456 0 38357
3392.952536376421 4 420412
396.2700491377776 0 8768
725.3134090706528 0 18503
641.5434931011351 0 13527
495.7224984272286 0 18711
192.07889015004048 0 50
634.0204032369252 1 83181
195.32945598334885 0 661
747.3565107944393 2 149799
556.3829509638883 2 49967
740.9896203788164 0 10223
705.4097240760236 0 11752
1237.692341830144 0 57993
837.7219774737811 1 29221
415.0670269908921 0 18800
241.81721328362988 0 1196
610.9828816235317 0 10656
216.50738489732765 0 4396
285.9020403387141 0 1935
854.7639523683612 0 33153
1797.6469488060484 0 51006
434.00682560092474 0 4745
552.6946936573728 1 11222
637.9711847703073 0 35539
847.018654564204 1 42995
376.2040910459807 0 6953
629.7030135713381 0 11966
336.94449585098704 0 11490
321.45331680593864 0 2594
201.81088725097584 0 788
715.7633290001185 0 51797
1292.3590096814678 2 118754
3189.7978048366404 1 552173
648.1621150990762 0 14004
204.65132659622492 0 1172
246.3534893667955 0 2501
2047.3368769609233 0 383718
619.3379138660846 0 49172
1915.9869292466537 0 217455
1291.0782897603842 1 125694
2624.029758954266 3 226093
506.3679741580442 0 18981
716.2565319903789 0 50714
201.6828346575425 0 1260
195.92046795304128 0 102
192.07889015004048 0 50
607.4991656745418 0 9172
338.0588466640712 0 4576
259.5550743839253 0 5743
582.6751548479508 0 37919
242.31777656404137 0 6497
204.1371760316819 0 1913
344.4960851447753 0 6636
742.6258574475858 0 109415
663.0293026224412 0 34346
277.1734626165112 0 3824
412.81162685666277 0 24823
457.61678840513713 0 20489
1315.2925451932306 0 66080
1523.5540767607208 1 97166
404.09588658342403 1 12728
863.5539591826281 1 100257
244.1907281733558 0 2924
332.1897694650422 0 3113
251.8182087387342 0 9046
753.9026336604362 0 26886
474.6811136579718 1 9638
413.8183344999942 0 9264
198.9937301954419 0 259
563.7687951852924 0 24508
258.3966543281597 0 2556
358.6636730619846 0 6162
759.26041292166 0 13835
936.6910983487079 0 22920
542.1565862086451 1 77903
192.07889015004048 0 50
630.1013742685413 0 15254
639.1731578609856 0 15640
1020.7030915284946 0 24710
491.57228692164904 0 9853
198.39005368354182 0 723
704.8441584550263 0 16513
470.472150035973 0 13594
343.3201380029636 0 4111
421.6737292951519 0 12184
404.38534737390614 0 17053
366.17221149512255 0 4194
352.59003226672644 0 4222
1751.7063687978205 0 98949
209.75014804384418 0 1092
822.3134688198699 0 19051
547.3961684365482 0 9547
904.9243955038421 0 15547
215.12835696804532 0 1064
1015.6619500760406 0 39658
395.15264090866947 0 2983
505.8454065892537 0 35816
277.5280396600314 0 5346
502.2524014676235 0 22226
769.2602108795883 0 24430
215.78423610514304 0 2303
611.916166746764 0 90794
1342.5399760106163 0 29356
410.93906555528656 0 3744
950.7513064692002 0 12127
196.2159739378875 0 664
199.76204575604208 0 156
496.7302379939416 1 17456
310.02955676810234 0 2179
597.6131920958517 0 48225
666.8291022223792 0 34890
4124.74145307359 10 911580
1258.6163576536755 0 56680
1709.1903374253604 12 1058017
568.4354080831861 0 182890
199.76204575604208 0 572
555.3716302259797 0 7373
208.8605194999914 0 2066
647.1534162420253 0 21226
220.11202546923556 0 2120
477.3160420228506 0 4970
540.0893354214329 1 62141
197.2009938873749 0 154
227.75068403504798 0 415
200.40230872320888 0 313
201.50821748467882 0 577
402.14998013692014 0 8270
3702.9883104506466 0 202424
300.99891962335755 0 2664
320.09947043504246 0 6666
850.1095792332852 0 166854
686.5448330791447 0 17514
201.42326858977216 0 1940
239.57476116895958 0 686
192.07889015004048 0 100
304.6606396420642 0 3886
456.92612906846165 0 6185
454.8903365491474 0 11486
361.7485764492429 0 4520
670.995589590808 0 9956
854.341712713262 0 54264
384.15778030008096 0 1600
984.3330163610414 1 58677
1307.7161672570232 1 182120
633.2394764360627 0 32638
275.04349147449653 0 4081
663.416476716971 2 55262
775.9679835837395 0 25249
1019.0059520874147 0 27852
1029.8501774284568 0 107232
222.63689540118327 0 2550
657.4851948210768 0 38851
417.2544506028571 0 11296
509.52126927134066 0 3979
315.21335742852654 0 9272
479.33717064308604 0 8360
335.25388509362614 0 5498
456.82762707351293 0 44237
730.055522210816 0 14063
579.6816982863609 1 23389
668.4345377221408 0 14790
1048.9163254693503 1 95019
1020.4399820623236 0 12219
2082.457714974604 10 1078205
3694.9505087906928 0 348183
2860.6872694813032 0 124359
1078.8929814227022 1 263153
1053.5229413476332 2 477730
259.1864523962109 0 4318
669.6184722605657 0 80879
786.6236205802288 0 90916
680.1614594365643 0 13456
193.99967905154088 0 101
1385.0093495864885 2 86167
2560.115149535178 3 414515
1381.2411283917043 6 566292
1894.8452378552067 0 182008
1363.6837743456254 3 392963
1288.6925905855421 4 715199
810.3056762381794 1 145542
1291.6830814743969 0 142901
979.9399329660762 0 84179
780.4129515698602 0 32707
1124.0518835393725 0 325373
1090.893611945518 1 343036
1349.2616736061213 5 422876
207.4452013620437 0 1998
594.1640335307918 0 34800
973.6207049212645 0 166512
539.8075027481449 2 90212
2309.3358529306684 1 274121
232.82974488383337 0 3091
1276.748382827319 0 26588
738.1916037501373 0 73981
1202.9710277457955 0 123066
823.9869504010261 0 13084
688.9520555336225 0 7891
1016.5482967227621 1 243448
6849.619550341522 8 476067
1770.9931495847354 5 892970
2191.310666572926 0 633736
1852.1591580037746 0 210693
1831.1830883038838 2 452841
223.92233025202307 0 4838
295.85559756068204 0 5468
213.20756806654492 0 1554
509.42334669989157 0 6763
883.4446295561235 1 216631
201.2986768772424 0 524
203.6036235590429 0 53
612.7679008786574 0 76086
840.8583710705846 1 82738
470.61090278412667 0 40059
546.9446397022402 0 41004
860.0941007176283 0 63585
3402.972008649179 4 884055
844.8965789773737 0 20234
384.6471532686161 1 15720
688.8497797609451 0 12552
197.84125685454168 0 103
211.5196020621961 0 1817
978.274210636288 0 68502
1464.0414676843025 0 190171
225.15914345365857 0 1055
1755.2589976738423 0 133418
4573.4353127205695 4 247626
433.06488484471697 0 38554
622.736464378618 0 18642
10131.978786729476 5 915196
4405.66678147928 2 212165
3122.0966185967704 6 417734
1006.4056633182696 6 332711
1457.438228325619 0 82706
2463.3777096334625 0 90415
661.8415596007745 0 12749
310.8722960582193 0 2104
573.8388228672026 0 45709
200.01815094290882 0 781
359.18752458057565 0 6358
698.329893189083 0 14179
973.5258817937931 0 80587
1879.9348617598164 0 428684
485.9197829831983 0 48825
353.67706461725487 0 5616
2482.189133538937 0 56214
275.98703689979493 1 5460
199.76204575604208 0 260
203.96948811170964 0 1115
219.23487117125308 0 3310
569.9719435713816 0 9644
271.79162956230726 0 1698
625.929718288325 0 53117
856.2322416860023 1 171399
952.6579398969368 0 35710
355.7533868475901 0 3056
486.69835704171794 0 36234
543.6171269389987 1 112358
433.3626704576658 0 5302
724.920785504726 0 130017
823.3347681177158 2 75870
1038.6076268972627 0 61642
202.32309762470928 0 158
516.3195241197357 1 27015
315.2918488021694 0 5581
203.2743454616428 0 1852
304.4450408878141 0 3487
582.6244102853436 0 26086
507.2822890770665 0 78438
340.530559514064 0 11435
219.8452309793248 0 4521
202.32309762470928 0 632
900.980533855248 0 24157
5913.150801202293 2 681888
637.8689404200039 0 64923
935.2605722724211 1 131467
896.7091986290985 0 46451
253.37710987618382 0 1517
486.57569418008364 0 6713
363.53330947022033 0 15141
579.3635361037267 0 6485
766.2220577102431 0 73200
194.63994201870767 0 152
1294.5331195539222 1 131759
197.84125685454168 0 103
215.8966725286455 0 843
192.07889015004048 0 50
744.2535039808225 0 71295
219.46562222949788 0 1771
1004.8469938992116 0 56761
645.6931219543766 0 35633
490.9902296787701 0 2684
235.54937581557596 0 1165
201.37955219941082 0 1992
476.4516870171754 1 14883
675.738377872804 1 83729
594.6122176078086 0 9287
238.6931573937698 0 5095
238.17782378605017 0 310
310.9620032321905 0 4533
912.2107139801163 2 125140
898.3047129588444 0 47469
212.7111844178426 0 4928
266.4658057899652 1 3052
207.79443570777107 0 1190
430.80782636352535 0 26578
230.30258928989852 0 2398
675.9450381459851 0 15660
355.73010455787494 0 5556
325.04452186206845 0 16584
204.5640180097931 0 213
984.644410631645 0 28707
1679.2364806993332 2 190585
540.8834089903377 0 20134
945.0281395381991 0 18450
990.7757093507637 1 42297
402.86459394947616 0 4824
700.8355025063078 0 63852
825.7225774527077 1 156264
1670.9222911607399 1 244446
3955.5352642518696 0 282128
2133.202383671633 5 355943
1267.1908021898532 0 95660
553.3251064250447 0 56174
688.4692563967311 0 54123
467.2755545831894 0 5352
669.061734098141 0 8534
543.8975700357693 0 15574
600.9606711822548 0 30505
647.9344816279455 0 18553
584.6263231233415 0 13240
487.26795553424756 0 8752
627.6625919729588 0 12254
351.8227885250902 0 17126
640.290212399447 1 70503
592.526370088167 0 84061
647.9707482715404 0 26313
415.24081691557734 0 31995
271.63156382051557 0 6788
950.6124819054882 0 152184
710.428255862787 0 18863
1223.1775803644728 0 63681
1086.4383564659768 3 362563
1406.088179784241 0 59661
6800.082843651815 21 2566685
469.07686857694097 1 39440
735.6364014341524 1 142854
785.6505308420518 0 131297
767.7212833709684 0 36172
505.1055201622999 0 20380
665.3561872972197 0 52306
1039.1763463102036 3 123081
797.7127774069347 0 43607
1558.5085812309724 2 263296
751.5761553139937 0 48715
466.9583702248864 0 38411
388.56614827073764 0 6170
519.4917957129853 0 20690
473.435149827129 0 21074
1340.2616376599187 0 53728
1197.518390360208 0 35225
961.6414321555044 2 219785
703.630965339775 0 26009
401.0180384354734 0 3758
195.92046795304128 0 102
555.4589996425206 0 56969
611.6209993294623 0 23404
972.6399750459533 0 122796
835.6149028585411 1 52422
595.3140907850235 0 41066
356.81095526177006 2 43840
355.25806754678723 0 14149
311.3087773752858 0 17666
394.6518464936441 0 4212
874.1662295605439 0 63260
198.9083617998197 0 466
444.8760516863993 0 25014
199.76204575604208 0 52
398.5455764113198 0 10997
448.1623731873656 0 13766
192.07889015004048 0 50
4503.814595200776 11 1582722
5003.10824459318 6 731925
2352.9762545374906 1 119438
6470.859907781881 13 1583362
645.859339768704 1 40854
720.9593833195338 0 20644
851.8627637824609 0 59872
1970.9737431751616 8 669548
2052.5566688891704 1 248984
1156.840848997702 2 151773
919.9785123764831 0 28977
4241.77553611816 11 1397886
655.3834631324819 0 38215
766.7377697167866 0 100593
4402.1622195545615 3 354091
323.7056988286836 0 7668
290.8446162465451 0 2347
653.357757190143 0 92521
513.1367116433847 0 12556
781.7015655080829 0 72237
578.7176894478928 1 28924
449.1097584150745 0 29110
595.9213510364199 0 43745
728.8897125443648 1 44019
332.1834923771288 0 7350
857.6199841652401 1 52463
548.705362861949 0 13712
296.49995952251703 0 849
7977.959764133826 0 431962
207.4452013620437 0 54
22662.53456484705 40 5627911
1457.3119860711513 0 92562
233.28854294586733 0 2672
210.39338897830015 0 2355
807.3237683804614 0 306615
1059.713291510711 0 22620
824.9320390332504 1 92552
379.0356765627465 0 2072
199.76204575604208 0 260
207.20510274935614 0 863
741.4245159791562 0 18721
716.3262076662176 0 8391
818.4977607088977 3 64345
461.59031939062794 0 39171
546.3750130340827 0 35130
1000.5904721523327 1 32037
794.3442102041673 0 20264
457.96126915067293 0 10133
271.76700406357 0 2759
233.37585153229918 0 972
4518.569575465016 6 1033904
3663.504665257543 5 686625
1504.2984629729315 1 403331
272.87207331940124 0 2273
218.421137942046 0 4378
522.7113447630664 3 52930
434.57006445174073 0 12896
382.9757563606961 0 3888
424.6187148583053 0 15364
493.42932669654846 0 26588
3105.4961710924936 1 140660
798.006135603921 1 102618
641.3320301028049 0 36394
750.2814870249636 0 35155
7228.78355394958 1 325538
4607.392636294521 3 560096
192.07889015004048 0 100
961.6563714435443 3 396270
199.18580908559196 0 1037
197.66663968167802 0 566
649.531535834359 0 10652
823.9554620583784 0 52334
812.9112681393452 0 34069
1343.8956035344347 6 875972
1383.6704690214115 3 378192
498.52065810522834 2 55801
1106.8929024278282 0 46966
843.7737028342347 0 42391
525.3757809958086 1 13129
239.73522019267213 2 6927
1013.0319066060134 1 64607
3461.8681654199922 0 273952
778.1503927761307 2 79201
645.4844220542136 0 38982
1964.656213176165 1 123252
729.585471658999 0 20891
850.7388155301356 1 137081
617.9914943030866 0 110678
1069.1331243587092 0 43694
410.30344415334014 0 14312
929.4217297135083 1 34839
982.0572016783434 0 52406
843.8465825081205 0 42175
421.51670504804076 0 25127
297.3792817144377 0 4335
577.0999463609081 0 13370
342.06744958894166 1 20480
234.96990830107012 0 5933
366.10236462597715 0 2859
204.24388652620968 0 957
1341.8574979027571 1 190717
587.1959379675606 0 65421
3720.8641921950525 4 245050
696.1671450261567 3 89341
309.66130094384954 0 4111
887.2720042930835 0 26792
377.80171520784324 0 5409
395.2709160873332 0 2881
1886.174263612313 2 139932
620.9713054271215 0 17296
444.79204555240926 0 32651
2133.7392210533553 5 248834
951.3855741768906 1 63152
1004.6801596631958 0 32691
195.92046795304128 0 51
195.92046795304128 0 51
511.55522092982864 0 5726
920.975017258149 0 26611
217.2760107004316 0 7183
406.62265919154214 0 4869
224.18350464654722 0 2451
492.4902743447037 0 7051
902.7707837051902 0 22090
233.6181940572548 0 6507
221.2399580182739 0 1267
362.17330534825453 0 19044
731.3603824640031 0 109659
742.7675065932134 0 47564
545.6146693764632 0 54255
598.8189183461398 0 23070
226.65309037704776 0 413
1904.2063378565633 3 256764
450.95982784447824 0 19604
255.6334141540714 0 3793
794.0997099219978 0 12196
206.16467542771008 0 1127
199.76204575604208 0 156
557.4877309956529 0 32797
497.9141523756538 0 37069
883.3814028254775 1 87612
602.7316761223641 0 15219
324.692260883767 0 6170
197.2009938873749 0 154
952.7723471141751 2 202877
2760.4060600776156 11 807662
5457.243397109953 20 1412050
1944.4062107957168 1 393783
1435.9922360346359 1 109898
198.80165130529187 0 414
1241.6075951048767 4 617640
518.4403482229519 0 12011
1562.743133412781 1 379135
1671.5628190716156 0 56131
302.0527856195818 0 8649
1906.0304883143708 3 225752
10227.188540808102 11 1328456
2119.1331664107597 3 452889
1688.2479026605877 12 268954
844.2432160006484 1 82192
731.8486805775298 1 78108
1312.2141731265153 0 68658
530.7900802146213 0 7323
369.0475742749444 0 5764
618.8192857309817 1 140788
10690.026641644936 12 1271702
626.594744693806 0 75030
642.7732664831933 0 109762
1963.261170776938 1 219243
446.5834195988441 0 6045
369.9641612595201 0 18298
1031.8749822354614 6 576968
273.35570052495757 0 4981
535.9319397987482 1 25251
3036.1028294382872 0 251324
875.3825937214433 0 19369
566.2957454335842 0 16805
1628.3746419948268 1 519679
973.4750632693972 1 242762
195.92046795304128 0 153
256.1852197376165 0 4268
201.55478206410916 0 787
293.4064330649939 0 12373
731.6669083595341 0 104753
782.2849344292556 0 15680
193.6155212712408 0 252
192.07889015004048 0 50
381.97506563928505 0 4375
8641.5471014311 25 3628409
9133.059375317234 4 672811
657.5869637902775 2 50497
200.40230872320888 0 313
675.0804673213322 2 140584
380.63017760597927 0 20609
881.5809341676189 0 36029
658.4307555249387 0 83984
207.25780732287294 1 2212
192.07889015004048 0 50
717.571960698024 0 86671
448.6399710666809 0 44612
622.4358191592528 0 18633
4506.094692072365 1 355413
2853.6285055827593 1 404098
3517.7625798011445 4 460601
2428.0364996081566 2 137153
827.731963953241 0 116352
404.4431850403169 0 8633
599.5121124330087 0 10612
711.2165143123877 1 42026
286.83780929072714 0 672
669.0419439212283 2 251136
742.9004906087303 0 73486
235.21106073026735 0 6184
962.0378313825647 3 136984
1232.8062490420998 2 373220
703.6407924167358 1 85721
451.86063859111067 0 45638
884.7353593642384 0 163747
202.9633605918761 0 634
861.2630040288644 0 137880
205.5244124605433 0 107
256.19536474942015 0 4735
656.1219807402574 0 87447
1641.6390618229511 0 341013
1877.8589228390724 0 270809
1053.1144742284548 0 197652
779.377652381276 0 94339
752.6515625473357 0 53095
893.4125214990429 1 40001
1346.2957900531414 0 140532
8772.79170998135 6 927159
307.9172362097572 0 5210
532.2185914574037 0 46550
788.313822081812 1 42888
844.143067916212 0 38674
1406.2519908223167 0 125925
1328.5858571492965 2 225836
640.7497786790276 0 20182
782.9615759741024 2 81525
3209.526809317328 3 244793
467.80034997839044 0 22528
496.93651926759924 0 35832
619.9949217968609 0 34699
1018.1252001033121 0 76063
430.08209676322696 0 7389
562.912717057435 0 11576
949.542814306683 0 173517
692.2313422014803 1 52797
318.2599456793747 0 18309
338.71740285887137 0 9258
288.99641015146085 0 5266
210.06445895499877 0 1203
298.36254269972954 0 3961
433.29424057102153 0 4850
1874.7257367452423 2 262061
1292.1995661070628 0 72320
2563.9276866873297 1 358402
1970.7211068252468 6 949046
1687.160042827854 5 326753
1126.3156884052644 0 32251
462.3613284325975 0 8425
1077.2248526161884 0 102070
859.1772268972244 0 92592
197.4570990742416 0 257
474.6777170374563 0 21500
402.0514453298479 0 11931
505.89921019994 0 11062
869.2210042256498 0 13576
411.446229521397 0 9318
595.0709105602743 0 50963
195.2802049858745 0 305
1243.9171206775993 1 87427
425.82412416339736 0 7205
12871.750904548337 5 851063
10734.226333960265 6 838267
957.3319341799779 0 71272
1175.85249536552 0 82031
743.750854277493 0 83444
195.92046795304128 0 51
730.0278351635872 0 11402
789.4999135572896 0 56722
806.2570697656018 0 17000
207.60200045604373 0 2648
688.461123645981 0 10932
1083.349409094655 0 44275
1478.693000310591 3 282145
556.9647551384006 0 8699
361.7673289210846 0 22507
915.9111339472303 0 76533
362.28372161583 0 12637
238.0032066131865 0 10904
806.9850277303682 1 44534
1592.771712632381 0 154651
1605.574637504845 0 31346
818.7810464977819 1 132571
56671.456825233545 8 1357196
600.1030245020977 0 27181
354.02719618848505 1 12349
1457.409250062885 0 34144
1324.4336430855908 5 572996
17108.19463390306 6 1068823
593.7325519659621 0 14219
699.3999830432988 0 12016
1007.5415156690663 1 427767
1401.7595032984666 7 417436
328.74866987091633 0 7274
1784.1552226900162 0 76167
883.1472015697121 2 123222
859.6139364841616 0 137616
1838.4487174477213 1 699185
923.3295572223484 0 21872
1137.753631892705 0 29913
1894.3439755920056 1 152866
1187.7943747324643 1 707746
833.3278213749071 1 135794
560.8847471699646 0 38983
9402.212266725755 25 4662463
5210.093046810055 9 667269
493.546708240529 0 10278
1428.6574344225803 0 73263
1396.9194952965554 2 149089
590.2206565949361 1 36720
195.5712336073139 0 560
333.9672253354313 0 14692
230.7425119092744 0 1862
327.44212255395985 0 4688
442.034738189247 0 20942
274.57171876184736 0 1358
195.92046795304128 0 255
819.4380959785573 0 38822
545.6130289566964 0 20026
744.5881682875098 0 29655
728.224781821926 0 39998
592.5323956467216 0 9563
207.8720433401549 0 974
566.8922920103897 1 65520
4608.759783265659 2 512274
447.143649695115 0 5587
910.8011465918943 1 285931
387.6653078593426 0 4642
1051.7101779341253 1 221754
1464.3787258814846 0 47649
631.0093010538931 0 73259
346.84791103154276 0 5959
887.3072173589337 0 72988
621.4043124975248 0 16014
198.80165130529187 0 414
854.2272096490891 0 17122
472.51406976909954 0 12792
286.56341087622707 0 3133
205.14025468024323 0 801
1167.9944764065735 2 120704
222.0431970134468 1 2023
589.2717677816711 1 17947
1448.9695851637628 0 35455
365.61799177255534 0 2189
672.7096650200517 1 122579
707.9656125336652 0 28565
476.36917425450525 0 35217
760.4223187080586 0 50674
2262.443010251378 2 477627
620.3151202589472 1 46666
802.6689804936633 0 72712
228.1718536945132 0 2554
890.9716518816876 0 38964
620.9295994798402 3 192991
885.4053780489395 0 96110
331.9258013996313 0 4925
1204.7459960320484 2 177188
641.7694682660176 0 19880
1168.5175776068932 0 36197
1074.1861305158775 2 222858
400.6445517046261 0 22527
291.3196500608947 0 3640
408.25824481890675 0 11265
706.2100527849822 1 38605
299.6123360116391 0 9749
486.7435875496025 1 24834
1007.7188650880742 1 115945
579.117853802372 0 68139
527.262041430151 0 24019
1780.7473840068462 1 222502
267.4012549303064 0 1949
192.07889015004048 0 100
397.7993014780838 0 5074
723.2914459210828 0 140645
484.94400254547577 0 21965
590.6727341223846 0 34288
586.4134818229832 0 26103
952.074820715301 0 83768
658.0436620787818 0 38884
643.0330844941354 0 16404
222.12551653779678 0 3238
15231.159530188601 12 2755549
466.44437684035825 0 18213
4121.840235009884 7 501070
1541.88903829433 1 158942
579.8921510585132 0 43625
2201.8422660532797 1 199460
403.67547397661724 0 6515
8704.30232178598 4 817959
3981.11486173203 10 988652
7415.931706144099 4 1187220
4818.201164678571 1 480368
3064.298560860312 2 246479
1737.3030143307608 0 34370
6279.6918706493625 18 2004099
8455.178423502579 7 944214
4183.363894795173 0 182947
6452.322165452377 7 797811
6069.5932912766475 4 548251
7744.037887681084 9 1036146
6597.664136037249 2 657778
9354.286793627629 6 625798
7898.498976652669 12 1102046
4413.752957987453 2 301023
8603.440802116347 8 756971
6969.091467678224 3 400921
1867.9419331709657 0 73909
12556.565878897212 4 1310707
5470.129015847398 5 925553
4578.869136261225 1 361153
6629.160276955692 1 396896
3192.6658739316294 6 639102
6092.498054921637 6 448820
6330.589830697859 5 977213
4499.205843987236 9 682802
6621.967282202385 4 522300
20824.43015021641 42 6412808
6057.437978063937 14 3052704
5714.103737954344 3 681246
3630.0474655888884 3 327893
2446.4397241452425 13 2411046
1677.642580065998 20 1569087
9296.026259285469 4 706595
8520.728607473784 3 1015857
4429.361871035762 4 781738
5573.013805157519 1 619453
1562.598242045924 1 192804
1514.9307799202775 0 132502
322.788574897143 0 3361
970.6623716680995 0 40933
192.07889015004048 0 50
541.5264851681407 0 63716
229.05407650392326 0 954
695.3469244420521 0 32581
610.633225460805 1 54998
681.7467808027437 0 43479
1395.963517991014 0 63592
1002.7013296856439 0 141730
661.8257216712158 0 60987
325.3389557163574 0 7622
465.9368229245678 0 8005
384.31378345959365 0 19708
641.7066489151622 3 43264
734.90946325972 0 89339
272.22215121264355 0 2055
233.74523401335694 0 1582
738.796068008682 1 14616
1479.759067203725 1 35438
198.48151982170847 0 155
633.5024265196986 0 26550
895.4807959766812 1 109325
1003.7792686342445 5 513703
1443.297223138312 2 386224
1513.7164465859328 0 22460
209.94222693399422 0 1093
1674.5018604629256 2 715294
604.8611099334566 0 51644
649.080023600152 0 66402
342.30480107791425 0 3386
363.7547337463655 0 4261
219.93032922179634 0 1832
5080.07796597889 4 248610
1589.1326845080016 2 79424
2128.2017300157936 7 986105
570.0901459653201 0 4452
374.8375886984824 0 17173
486.10013760898045 0 20752
919.888402445032 1 162830
1999.4724884296502 5 901475
1613.2995214463128 0 108769
216.40888290237893 0 1352
216.83572488049012 0 3048
526.9946277025656 0 6036
203.6036235590429 0 53
583.825205913192 1 30851
1317.5896676935834 0 128961
793.6279896431039 2 189029
905.1499680954072 0 202397
417.2851525233607 0 8364
621.227909872996 0 52718
475.5748390755555 0 15227
621.8647010006019 1 150546
704.6470578945455 0 12473
722.0570726145068 0 117662
363.0796494599317 0 7183
497.2142145493313 1 16567
557.0852752263379 0 9861
290.9995185773113 0 303
1560.8720051891905 2 472945
603.8878859438057 0 44487
696.0963447685892 0 56897
1506.7602363547683 2 187091
205.5244124605433 0 642
706.6435940766511 0 41020
202.4737477346309 0 1792
209.88000419493153 0 3879
863.6193843937564 0 21132
234.09233628127154 0 3839
417.771586076338 0 25665
437.3230717098478 0 65230
379.2597686012549 0 7898
943.1351881570102 0 50820
428.84552209009036 1 21880
745.1998596821052 0 45004
511.0759153961799 0 34989
612.385287809506 0 19448
1096.4425231881823 0 35106
746.5338144571473 0 19433
614.5449917583672 0 22876
194.63994201870767 0 152
528.5966387419777 0 23667
399.10218412331534 1 17973
3547.5962596539184 1 738779
719.8610916034645 2 45535
463.2244361727521 0 19896
201.81088725097584 0 788
203.1234263336678 0 846
355.4526572721026 0 9993
668.9368978963794 0 22637
201.58679521246748 0 2099
407.8218995665659 0 5308
704.7189140325015 0 83651
560.6063645549735 0 61583
210.0062532307109 0 1640
560.4465552812035 0 40995
611.5534241775114 2 161422
490.8121114097086 0 19420
477.9600712427654 0 21151
290.4910744563259 0 2571
785.4800571667612 0 38440
574.3302157941547 1 40067
470.0874621035207 2 71096
1658.7330352917809 1 176168
192.07889015004048 0 50
432.63150748703663 0 18582
410.63351921265405 0 7910
445.65926644812225 0 12297
406.53180486700876 0 9630
2091.8074263099356 1 520559
617.2980633821961 0 34066
973.9576988320874 1 157189
206.0046096859184 0 858
1521.118153783752 1 373392
195.92046795304128 0 51
439.0089878929274 1 24227
3826.992975201786 4 1336905
1271.3221541805804 0 21180
195.2802049858745 0 305
2927.253510022924 0 203452
663.6709812464198 0 17276
932.8556106565338 0 61922
1326.8155845981307 0 32466
561.6665411662012 0 28218
192.07889015004048 0 150
503.7573551034747 0 43405
550.8923663655871 0 54493
736.7949222165655 0 22440
662.3229366719123 0 18965
759.9971834676799 0 25125
296.9539641719626 0 3865
1286.6347020036508 4 240810
607.2403531084029 0 64967
313.43496271368895 0 4977
635.8960453907407 0 19367
751.390348250709 0 13496
642.46420183078 0 40472
619.8883767449603 0 43568
853.8623379445978 1 148920
2124.717364358966 1 150439
718.959521579312 0 135311
589.1594275074942 1 98613
435.46652492920134 0 16550
466.6111575352203 1 24900
550.0058970140065 0 9163
820.6951690569506 0 13459
253.30022529627558 0 4154
475.49634727406067 0 9407
3116.0489288722692 11 594564
883.3949568627326 0 42082
624.7010624946614 1 68136
577.935501523004 0 67699
1060.981218035214 2 145825
1375.5840205952316 0 202314
404.16094331640795 0 29984
769.4680339410621 1 30045
797.8361344125263 0 38837
195.92046795304128 0 51
1176.4728753469467 0 28481
339.9444562816614 0 24158
246.01464250417186 0 8005
791.564878286531 0 35647
228.25374779496474 0 1426
572.6085136361761 0 8049
3173.3402692685663 1 257728
1129.7449611821903 0 98518
912.1217462598116 0 48674
366.1870095606195 0 5624
7357.205592295544 7 654982
771.0483903380689 0 49375
1023.321592953282 0 156099
2203.305968444961 3 177798
1857.7291086139323 2 506797
1082.461523936759 2 346020
312.60122659642406 0 5452
26557.326258352776 5 1064622
7373.221885947082 1 370429
202.42159961965802 0 685
252.24295541961766 0 12213
557.8369822297378 0 53147
337.2020919022509 0 12201
1155.7075546237177 0 76113
606.653939472389 0 21161
987.1318322590879 0 12848
224.0120056374847 0 933
233.77406386553704 0 4990
1727.73831814137 0 76457
680.9317544630917 1 126736
613.246594475627 1 37514
276.38780300518323 0 4029
958.4736618487019 1 141716
1820.6977502432574 1 337923
192.07889015004048 0 50
646.3024626182854 0 11272
625.0702865899622 0 9600
202.9633605918761 0 317
759.0230953739842 0 43863
611.5678571879076 1 118761
1515.336982067585 1 105320
209.07496164210465 0 1796
450.82129399676415 0 31568
198.66445209804183 0 362
544.8683912673449 1 19715
371.7673392171628 0 6871
667.2262995421647 0 21537
576.6188169331425 0 28669
494.6972984550552 0 39405
654.2110614837901 0 47513
504.6025431824004 0 29029
565.9924629754527 0 7514
453.1039924486744 0 4482
1353.918398981971 4 364421
207.4452013620437 0 54
864.1383012862949 0 43864
523.3517161441403 1 22751
662.2016163068303 1 42922
939.961631588761 3 343777
1251.604787621581 1 347308
216.05033564076552 0 1406
548.1807603017542 0 22118
1741.8725334151914 2 289286
710.9121113909905 0 29054
432.0028856647274 0 6185
616.7544438817714 0 8509
331.584277333171 0 15364
330.96670302776204 0 4480
474.95871018919104 0 1360
823.7416438364704 1 147312
2955.2465650374425 1 294634
5601.413905651016 11 1864913
3280.990458552526 4 707173
4179.921678090185 19 1657137
5084.3082556509735 4 636601
6381.356418242796 0 772425
4310.421377379188 1 277145
1271.9516910928849 2 192701
1013.8047743983748 0 57267
356.81478534931045 0 4737
390.97812164016796 0 19032
504.1665065966414 0 9318
519.2831231945793 0 78266
1072.2699975115866 1 180313
353.5997750489381 0 6075
1393.6566966313403 0 131690
5976.006882680709 0 172673
192.07889015004048 0 100
221.31236026068078 0 2362
202.16303188291758 0 421
196.9681709902233 0 564
201.49075576739244 0 1049
209.83551643946643 0 2458
201.2026374321674 0 419
232.41545708154896 0 605
242.9797960398012 0 253
192.07889015004048 0 50
318.6588787589171 0 3318
288.4523854687999 0 1727
275.0309260995833 0 4224
202.06699243784257 0 263
209.8461874889192 0 2622
195.2802049858745 0 305
458.54941532305605 0 8833
247.62932472994103 0 4061
192.07889015004048 0 100
195.92046795304128 0 51
203.6036235590429 0 477
313.40872242814936 0 979
216.0887514187955 0 675
209.8898417821351 0 601
194.82287429504103 0 355
199.281848530667 0 415
360.971114274826 0 2631
195.92046795304128 0 153
205.5244124605433 0 107
279.47478516830887 0 2910
215.12835696804532 0 784
201.6828346575425 0 735
193.99967905154088 0 101
383.627907499667 0 2896
205.14025468024323 0 534
215.12835696804532 0 2632
201.85745183040615 0 1156
444.85470958749374 0 8106
201.6828346575425 0 105
302.52425198631374 0 1575
195.92046795304128 0 51
316.93016874756677 0 3465
193.99967905154088 0 404
257.6858360669137 0 4293
195.92046795304128 0 51
295.36494789890315 0 3383
343.0386697420352 0 2411
213.79858003623735 0 1447
275.8419887676451 0 3303
198.284515831811 0 671
251.34894768205297 0 916
193.99967905154088 0 101
213.20756806654492 0 333
196.46926478204142 0 716
317.53041527928565 0 2645
285.40273712293947 0 4309
211.50020015410013 0 991
305.40543533856436 0 1749
345.0810856588039 0 8354
222.00275935236255 0 1098
238.51678653337376 0 2111
368.7914690880777 0 5952
222.27796010140796 0 2083
446.8316114231952 0 10352
198.48151982170847 0 465
287.5362779821818 0 2470
204.75609689994315 0 533
324.14099921385514 0 5147
305.2576823461413 0 1033
305.99913372630084 0 4381
195.92046795304128 0 51
274.1240160855578 0 999
199.76204575604208 0 52
192.07889015004048 0 50
209.79283224165533 0 983
213.17132676651661 0 2941
203.6036235590429 0 318
203.6036235590429 0 53
212.4272475753104 0 3539
204.76503080181058 0 2292
220.35944163596133 0 2696
195.92046795304128 0 51
217.1691951758895 0 1809
203.85972874590962 0 796
195.92046795304128 0 306
197.84125685454168 0 515
198.66445209804183 0 362
197.84125685454168 0 103
198.9083617998197 0 466
199.3100954262773 0 882
198.58002181665722 0 672
198.32145407991678 0 413
198.0546778435973 0 464
192.07889015004048 0 50
199.377887975742 0 519
195.92046795304128 0 51
192.07889015004048 0 50
267.1642744814199 0 3825
197.2009938873749 0 154
201.6828346575425 0 105
200.53036131664226 0 1044
196.68878351364143 0 256
208.72572729637733 0 1630
209.11545258073969 0 1252
193.03928460079067 0 201
205.65246505397664 0 1606
201.95723307204253 0 368
199.76204575604208 0 104
200.8596394140423 0 732
193.99967905154088 0 101
203.6036235590429 0 1113
199.41281141031473 0 571
202.39627053524265 0 1844
192.07889015004048 0 50
202.6432291082927 0 422
193.99967905154088 0 202
199.76204575604208 0 520
192.07889015004048 0 150
207.4452013620437 0 54
195.92046795304128 0 102
198.5928699029549 0 1189
195.92046795304128 0 51
199.0939452685637 0 1192
206.51390977343746 0 1774
192.07889015004048 0 200
195.92046795304128 0 51
200.7224402067923 0 836
197.84125685454168 0 412
200.7224402067923 0 418
199.76204575604208 0 208
193.99967905154088 0 101
